frequency,SPL
20.0,47.9625
20.138772629520556,47.95734838250556
20.27850815117631,47.95216101983581
20.419213246120933,47.94693766396818
20.560894641866188,47.9416780651591
20.70355911260353,47.936381971932185
20.847213479528037,47.9310491310661
20.991864611164555,47.925679287582525
21.137519423696084,47.92027218473394
21.284184881294486,47.914827563991324
21.431867996453427,47.90934516503186
21.580575830323685,47.9038247257264
21.73031549305077,47.89826598212702
21.88109414411485,47.892668668454334
22.03291899267313,47.88703251708482
22.185797297904458,47.881357258538
22.339736369356466,47.875642621463605
22.494743567295043,47.86988833262853
22.650826303056235,47.864094116903814
22.807992039400652,47.85825969725149
22.966248290870226,47.852384794711334
23.125602624147522,47.84646912838748
23.28606265841754,47.84051241543508
23.447636065731974,47.834514371046694
23.610330571376103,47.82847470843872
23.77415395423807,47.82239313883767
23.939114047180873,47.816269371466355
24.105218737416855,47.81010311353001
24.272475966884812,47.80389407020226
24.440893732629764,47.797641944611044
24.610480087185234,47.7913464378244
24.781243138958327,47.785007248836216
24.9531910526174,47.77862407455178
25.12633204948242,47.77219660977334
25.300674407918066,47.76572454718548
25.476226463729574,47.759207577340426
25.652996610561214,47.75169080247545
25.830993300297685,47.742873449604204
26.01022504346819,47.73399491637078
26.190700409653346,47.72505477826721
26.372428027894973,47.71605260783999
26.5554165871086,47.706987974669694
26.739674836498935,47.69786044535036
26.92521158597821,47.688669583468794
27.112035706587367,47.67941494958369
27.30015613092028,47.6700961012046
27.48958185355075,47.660712592770835
27.680321931462636,47.651263975630094
27.87238548448286,47.64174979801706
28.06578169571745,47.63216960503176
28.260519811990676,47.62252293861788
28.456609144287057,47.612809337540774
28.654059068196624,47.60302833736549
28.852879024363165,47.59317947043452
29.053078518935628,47.58326226584546
29.254667124022603,47.57327624942849
29.457654478150054,47.563220943723685
29.662050286722092,47.55309586795822
29.867864322485055,47.542900538023346
30.075106425994772,47.53263446645128
30.283786506087043,47.522297162391865
30.49391454035148,47.51188813158913
30.705500575608458,47.501406876357635
30.91855472838956,47.49210888675673
31.133087185421246,47.48372607615201
31.349108204111904,47.47528510031376
31.566628113042352,47.46678555565488
31.785657312459563,47.45822703578789
32.00620627477402,47.44960913150557
32.2282855450604,47.44093143076133
32.451905741561745,47.43219351864957
32.677077556197226,47.4233949773858
32.90381175507326,47.41453538628667
33.132119178998295,47.40561432174987
33.36201074400119,47.396631357233886
33.59349744185307,47.38758606323756
33.826590340592965,47.378478007279604
34.06130058505689,47.369306753877886
34.297639397410805,47.36007186452864
34.535618077687126,47.35077289768548
34.775248004325015,47.34140940873829
35.01654063471449,47.331980949991966
35.25950750574412,47.32248707064501
35.50416023435271,47.31292731676799
35.75051051808472,47.30330123128182
35.99857013564954,47.2936083539359
36.24835094748474,47.283848221286135
36.499864896323054,47.27402036667275
36.75312400776343,47.264124320198015
37.008140390846044,47.254159608703716
37.264926238631205,47.24412575574859
37.523493828782414,47.23402228158553
37.78385552415333,47.22384870313862
38.0460237733789,47.213604533980075
38.310011111470565,47.20328928430696
38.57583016041556,47.192902460917786
38.84349362978051,47.180904883073154
39.113014317318985,47.16617145370482
39.384405109583454,47.15133579449973
39.657678982541434,47.13639719612271
39.93284900219587,47.12135494431678
40.209928325209965,47.106208319869
40.488930199536085,47.09095659857607
40.769867965049265,47.075599051209714
41.05275505418505,47.06013494348181
41.337604992581646,47.04456353600928
41.62443139972677,47.02888408427872
41.913247989608664,47.01309583861087
42.20406857137191,46.99719804412467
42.496907049977665,46.981189940701256
42.791777426868435,46.965070762947555
43.08869380063767,46.94883974015972
43.38767036770369,46.93249609628628
43.68872142298855,46.91603904989103
43.991861360601504,46.89946781411566
44.29710467452719,46.88278159664214
44.60446595931875,46.86597959965485
44.913959910795484,46.84906101980239
45.225601326745576,46.832025048159245
45.539405107633605,46.814870870187036
45.85538625731298,46.7975976656956
46.17355988374338,46.780204608803786
46.493941199712964,46.762690867899956
46.81654552356587,46.74505560560223
47.14138827993456,46.72729797871844
47.46848500047733,46.709417138205815
47.797851324621014,46.691412229130385
48.12950300030849,46.67328239062613
48.463455884751994,46.6523976775633
48.799725945191014,46.63050650418365
49.13832925965581,46.60846343601935
49.47928201773629,46.58626741912845
49.822600521355774,46.56391739225611
50.1683011855508,46.541412286783824
50.5164005392557,46.51875102667833
50.866915226093,46.49593252844019
51.2198620051692,46.47295570105194
51.57525775187602,46.44981944592595
51.933119458697426,46.42652265685191
52.29346423602185,46.4030642199439
52.65630931296043,46.37944301358719
53.021672038170784,46.35565790838455
53.38956988068642,46.331707767102294
53.76002043075213,46.30759144461587
54.13304140066484,46.28330778785517
54.50865062562059,46.258855635749306
54.886866064567315,46.234233819171195
55.26770580106341,46.20944116088157
55.65118804414249,46.18447647547276
56.03733112918391,46.15933856931199
56.42615351878945,46.13402624048429
56.81767380366609,46.108538278735054
57.211910703514846,46.08287346541216
57.60888306792594,46.05703057340772
58.00860987727984,46.031008367099396
58.41111024365494,46.00480560229129
58.816403411741284,45.978421026154535
59.224508759760695,45.951853377167325
59.63544580039345,45.9210980452066
60.04923418171099,45.88857244308068
60.465893688115564,45.85582115778807
60.885444241286066,45.822842623396454
61.307905901130546,45.789635263108075
61.733298866745464,45.756197489184366
62.16164347738128,45.72252770287002
62.59296021341505,45.688624294316554
63.027269697329594,45.654485642505364
63.46459269469953,45.620110115170164
63.90495011518425,45.58549606871899
64.34836301352743,45.5506418481556
64.79485259056395,45.51554578700033
65.2444401942334,45.48020620721045
65.69714732060088,45.44462141909989
66.15299561488483,45.40878972125847
66.61200687249178,45.372709400470576
67.07420304005862,45.3363787316332
67.53960621650184,45.299795977673476
68.00823865407413,45.26295938946566
68.48012275942848,45.22586720574742
68.9552810946893,45.188517653035724
69.43373637853124,45.15090894554197
69.91551148726552,45.11303928508663
70.40062945593358,45.07490686101326
70.88911347940872,45.03650985010196
71.3809869135046,44.99784641648217
71.87627327609256,44.95904712192304
72.37499624822561,44.92211665183218
72.8771796752709,44.88492993481912
73.38284756804988,44.847485192880896
73.89202410398606,44.809780635677654
74.40473362826137,44.77181446044702
74.92100065497986,44.7335848519179
75.44084986833995,44.69508998222372
75.96430612381474,44.65632801081501
76.49139444933999,44.61729708437142
77.02214004651142,44.577995336713066
77.55656829178916,44.53842088871134
78.09470473771121,44.49857184819908
78.63657511411542,44.45844630988002
79.18220532936918,44.418042355237795
79.73162147160883,44.37735805244412
80.28484980998645,44.33639145626651
80.84191679592612,44.2951406079752
81.40284906438879,44.25360353524951
81.96767343514524,44.2117782520836
82.53641691405909,44.16966275869141
83.10910669437752,44.12725504141114
83.68577015803162,44.084553072608934
84.2664348769458,44.036141687232096
84.85112861435556,43.98697778895947
85.43987932613558,43.93747276051481
86.03271516213591,43.88762423492155
86.62966446752799,43.83742982877959
87.23075578416012,43.786887142151244
87.83601785192172,43.73599375844658
88.445479610118,43.684747244307815
89.05917019885312,43.63314514949302
89.67711896042374,43.58118500675891
90.29935544072205,43.528864331742916
90.925909390648,43.476180622844424
91.55681076753238,43.423131361105085
92.19208973656869,43.369714010088465
92.83177667225556,43.31592601575872
93.47590215984928,43.26176480635848
94.12449699682564,43.20722779228591
94.77759219435308,43.1523123659709
95.43521897877493,43.09701590175033
96.09740879310259,43.04133575574262
96.76419329851916,42.985269265721215
97.43560437589264,42.92881375098741
98.11167412730097,42.871966512242075
98.79243487756642,42.81472483145665
99.47791917580126,42.757085971743194
100.16815979696426,42.69392917223279
100.86318974342718,42.62741530287766
101.56304224655342,42.560439918295025
102.26775076828653,42.4929998162008
102.97734900274986,42.42509177209145
103.69187087785828,42.35671253908975
104.41135055693952,42.28785884778965
105.1358224403684,42.21852740609986
105.86532116721123,42.148714899086464
106.59988161688177,42.0784179888145
107.33953891080954,42.00763331418824
108.08432841411832,41.93635749079061
108.83428573731777,41.86458711072128
109.58944673800576,41.79231874243374
110.34984752258259,41.71954893057128
111.11552444797758,41.64627419580174
111.88651412338757,41.57249103465112
112.66285341202705,41.49819591933615
113.44457943289089,41.42338529759552
114.23172956252871,41.34805559252015
115.02434143683229,41.27766513399983
115.82245295283518,41.207541233837205
116.62610227052438,41.136930769773684
117.43532781466513,41.065830365721666
118.25016827663764,40.99423662216813
119.07066261628742,40.9221461160121
119.8968500637882,40.84955540040094
120.7287701215173,40.77646100456556
121.56646256594462,40.70285943365451
122.40996744953408,40.62874716856685
123.25932510265886,40.55412066578391
124.11457613553003,40.47897635719981
124.97576144013777,40.40331064995093
125.8429221922069,40.32711992624406
126.7160998531651,40.250400543183495
127.59533617212567,40.17314883259682
128.48067318788384,40.09536110085949
129.37215323092656,40.017033628718266
130.26981892545606,39.937245652594584
131.17371319142873,39.85651136532469
132.08387924660613,39.77521689258796
133.00036060862237,39.693358347463885
133.92320109706446,39.610931816062006
134.85244483556687,39.527933357334895
135.78813625392226,39.44435900288959
136.7303200902048,39.36020475679795
137.67904139290994,39.27546659540554
138.63434552310815,39.19014046713926
139.5962781566132,39.10422229231368
140.56488528616708,39.01770796293587
141.5402132236378,38.930593342509134
142.52230860223492,38.84287426583508
143.5112183787386,38.75454653881455
144.5069898357443,38.665605938247126
145.50967058392467,38.57604821162909
146.51930856430462,38.485869076950245
147.53595205055464,38.395064222489026
148.5596496512984,38.30362930660646
149.59045031243645,38.211559957538554
150.62840331948755,38.11885177318721
151.67355829994383,38.04240558575048
152.72596522564484,37.97816465389556
153.78567441516628,37.91347797788881
154.85273653622542,37.84834246487585
155.92720260810475,37.78275500054208
157.0091240040902,37.71671244896387
158.09855245392842,37.65021165245851
159.19554004629973,37.58324943143333
160.30013923130812,37.51582258423365
161.41240282299017,37.44792788698965
162.53238400183892,37.37956209346232
163.66013631734782,37.31072193488812
164.7957136905704,37.241404119822825
165.93917041669815,37.171605333984076
167.09056116765746,37.1013222400929
168.24994099472238,37.03055147771423
169.41736533114806,36.95928966309614
170.59288999482052,36.8875333890081
171.776571190925,36.81527922457807
172.96846551463454,36.74252371512844
174.1686299538145,36.669263382010904
175.37712189174854,36.59549472244006
176.59399910988185,36.521214209325954
177.8193197905832,36.44641829110551
179.05314251992803,36.37110339157261
180.29552629049837,36.29526590970721
181.5465305042045,36.218902219503086
182.80621497512467,36.142008669794464
184.07463993236445,36.064581584081544
185.35186602293768,35.98661726035459
186.6379543146648,35.90811197091703
187.93296629909383,35.829061962207135
189.23696389444007,35.74946345461862
190.55000944854584,35.669312642319916
191.87216574186297,35.58860569307216
193.20349599045295,35.50733874804603
194.54406384901077,35.42550792163718
195.89393341390794,35.343109301280485
197.25316922625643,35.260138947263016
198.62183627499604,35.17881076736424
200.00000000000003,35.1360819409592
201.38772629520545,35.09305663497433
202.78508151176308,35.04973279224709
204.19213246120933,35.00610834134104
205.608946418662,34.96218119644681
207.03559112603529,34.91794925728236
208.47213479528025,34.873410408992584
209.91864611164556,34.82856252204815
211.37519423696082,34.78340345214374
212.84184881294496,34.737931040095454
214.31867996453425,34.69214311173764
215.80575830323676,34.64603747781891
217.3031549305077,34.59961193389744
218.81094144114851,34.55286426023563
220.3291899267314,34.505792221693916
221.85797297904458,34.458393567623936
223.39736369356456,34.410666031760904
224.9474356729504,34.36260733211526
226.50826303056232,34.31421517086356
228.07992039400665,34.2654872342386
229.66248290870226,34.21642119241882
231.2560262414751,34.16701469941687
232.86062658417538,34.11726539296744
234.47636065731973,34.06717089441438
236.10330571376113,34.01672880859688
237.74153954238068,33.96593672373501
239.3911404718086,33.91479221131439
241.05218737416854,33.863292825970056
242.72475966884815,33.81143610536958
244.40893732629777,33.7592195700953
246.10480087185235,33.706640723525794
247.81243138958317,33.65369705171651
249.531910526174,33.600386023279555
251.2633204948243,33.546705089262666
253.0067440791808,33.49265168302735
254.76226463729574,33.43822322012614
256.529966105612,33.398248394279484
258.30993300297683,33.3644419254407
260.102250434682,33.330400885973134
261.90700409653357,33.29612364827764
263.7242802789497,33.26160857346177
265.55416587108584,33.22685401126138
267.3967483649894,33.191858299961766
269.25211585978224,33.1566197663182
271.1203570658738,33.121136725475935
273.00156130920277,33.08540748088962
274.8958185355074,33.049430324242195
276.80321931462635,33.01320353536324
278.72385484482874,32.97672538214669
280.65781695717465,32.93999412046806
282.6051981199068,32.903007994100975
284.5660914428704,32.865765234633315
286.54059068196625,32.82826406138255
288.5287902436318,32.79050268131068
290.53078518935627,32.75247928893847
292.54667124022603,32.714192066259116
294.5765447815004,32.67563918265136
296.6205028672209,32.6368187947919
298.6786432248507,32.59772904656732
300.7510642599477,32.55836806898534
302.83786506087046,32.51873398008537
304.93914540351466,32.478824884848635
307.0550057560846,32.438638875107515
309.18554728389574,32.398174029454296
311.33087185421243,32.35742841314937
313.49108204111906,32.310539926030735
315.66628113042333,32.25628030286061
317.8565731245956,32.201644192161275
320.0620627477404,32.14662898162451
322.282855450604,32.091232040816266
324.51905741561745,32.03545072105086
326.77077556197213,31.979282355264342
329.0381175507325,31.92272425788702
331.32119178998306,31.86577372471501
333.62010744001185,31.808428032780963
335.93497441853066,31.75068444022385
338.26590340592946,31.69254018615788
340.6130058505689,31.633992490540493
342.97639397410825,31.57503855403944
345.3561807768712,31.51567555789896
347.75248004325016,31.455900663804947
350.1654063471447,31.395711013749295
352.5950750574412,31.335103729893227
355.04160234352725,31.27407591442972
357.5051051808471,31.212624649444933
359.9857013564953,31.15074699677868
362.4835094748472,31.093919266097167
364.9986489632305,31.037268598857896
367.53124007763455,30.980224853515782
370.08140390846046,30.922785302646737
372.649262386312,30.864947199902062
375.234938287824,30.806707779877165
377.8385552415333,30.748064257979333
380.4602377337892,30.689013830294595
383.1001111147056,30.62955367345366
385.7583016041556,30.5696809444969
388.43493629780494,30.50939278073844
391.1301431731899,30.44868629962929
393.84405109583474,30.387558598619517
396.5767898254143,30.326006755019467
399.3284900219587,30.26402782586001
402.09928325209944,30.20161884775183
404.8893019953608,30.13877683674376
407.69867965049286,30.075498788180088
410.5275505418505,30.02586649175888
413.37604992581646,29.9811752458699
416.2443139972675,29.936173903895487
419.13247989608664,29.89086031419318
422.04068571371937,29.845232310191076
424.96907049977665,29.79928771028422
427.91777426868435,29.753024317730297
430.8869380063765,29.70643992054461
433.8767036770369,29.659532291394314
436.8872142298857,29.612299187491928
439.918613606015,29.564738350488103
442.9710467452719,29.516847506363614
446.0446595931873,29.46862436532067
449.13959910795484,29.42006662167341
452.25601326745596,29.371171953737672
455.39405107633604,29.32193802371999
458.55386257312983,29.2723624776058
461.73559883743354,29.2224429450469
464.93941199712964,29.172177039248115
468.16545523565895,29.12156235685318
471.41388279934563,29.070596477829838
474.6848500047733,29.019276965354102
477.9785132462096,28.967601365693767
481.2950300030849,28.91556720809108
484.6345588475202,28.86317200464462
487.9972594519101,28.810413250190344
491.3832925965581,28.757288422181773
494.7928201773624,28.703794980569423
498.22600521355776,28.649930367679335
501.6830118555083,28.5956920080908
505.164005392557,28.541077308513227
508.6691522609297,28.486083657662114
512.1986200516914,28.43070842613422
515.7525775187603,28.374948966281845
519.3311945869746,28.318802612086255
522.9346423602185,28.262266679030184
526.5630931296041,28.205338463969486
530.2167203817073,28.148015245003894
533.8956988068643,28.09029428134687
537.6002043075216,28.03217281319459
541.3304140066483,27.973648061593966
545.0865062562057,27.914717228309755
548.8686606456725,27.855377495690814
552.677058010634,27.795626026535334
556.5118804414252,27.735459963955233
560.3733112918392,27.674876431239532
564.2615351878942,27.6138725317168
568.1767380366604,27.552445348616683
572.1191070351484,27.500972903681394
576.0888306792597,27.458890015808205
580.0860987727984,27.41651513028463
584.1111024365491,27.373846221046563
588.1640341174123,27.33088124797181
592.2450875976069,27.28761815678251
596.3544580039347,27.244054878946933
600.49234181711,27.20018933158057
604.6589368811553,27.156019417346542
608.8544424128606,27.11154302435531
613.0790590113054,27.066758026063734
617.332988667455,27.02166228117335
621.6164347738129,26.976253633528042
625.9296021341502,26.9305299120109
630.272696973296,26.88448893044043
634.6459269469954,26.838128487466054
639.0495011518428,26.791446366462807
643.4836301352744,26.74444033542541
647.9485259056391,26.69710814686149
652.444401942334,26.649447537684164
656.9714732060088,26.60145622910384
661.5299561488486,26.55313192651922
666.1200687249178,26.504472319407633
670.7420304005858,26.455475081214534
675.3960621650184,26.40613786924226
680.0823865407413,26.356458324538067
684.8012275942853,26.306434071781265
689.5528109468929,26.256062719169726
694.3373637853119,26.205341858305466
699.1551148726552,26.154269064079518
704.0062945593359,26.10284189455599
708.8911347940872,26.051057890855276
713.809869135046,25.99891457703654
718.7627327609252,25.94640945997927
723.7499624822561,25.893540029264134
728.771796752709,25.840303757052922
733.8284756804989,25.786698097967673
738.9202410398606,25.732720488969008
744.0473362826133,25.678368349233544
749.2100065497987,25.623639080030514
754.4084986833996,25.568530064597542
759.6430612381473,25.513038668015465
764.9139444934,25.45716223708242
770.2214004651139,25.40089810018694
775.5656829178915,25.344243567180214
780.9470473771121,25.287195929247517
786.3657511411542,25.22975245877862
791.8220532936919,25.17191040923744
797.3162147160879,25.11366701503068
802.8484980998645,25.055019491375596
808.4191679592622,25.005820686888267
814.0284906438878,24.960038254125646
819.6767343514524,24.913938153934005
825.3641691405904,24.867518182136127
831.0910669437752,24.82077611926081
836.857701580317,24.77370973043677
842.6643487694579,24.72631676528578
848.5112861435555,24.678594957815054
854.3987932613554,24.630542026308916
860.3271516213591,24.582155673219706
