frequency,SPL
20.0,34.249032079980886
20.138772629520556,34.268112901979805
20.27850815117631,34.287326118770835
20.419213246120933,34.30667264899265
20.560894641866188,34.32615341765801
20.70355911260353,34.34576935619802
20.847213479528037,34.3655214025066
20.991864611164555,34.38541050098542
21.137519423696084,34.40543760258898
21.284184881294486,34.425603664870096
21.431867996453427,34.445909652025705
21.580575830323685,34.46635653494294
21.73031549305077,34.48694529124557
21.88109414411485,34.50767690534074
22.03291899267313,34.52855236846601
22.185797297904458,34.5495726787368
22.339736369356466,34.57073884119408
22.494743567295043,34.592051867852405
22.650826303056235,34.613512777748355
22.807992039400652,34.635122596989206
22.966248290870226,34.656882358802044
23.125602624147522,34.6787931035831
23.28606265841754,34.70085587894756
23.447636065731974,34.723071739779606
23.610330571376103,34.74544174828289
23.77415395423807,34.7679669740313
23.939114047180873,34.79064849402009
24.105218737416855,34.8134873927174
24.272475966884812,34.836484762116086
24.440893732629764,34.85964170178595
24.610480087185234,34.88295931892629
24.781243138958327,34.90643872841887
24.9531910526174,34.93008105288119
25.12633204948242,34.9538874227202
25.300674407918066,34.9778589761863
25.476226463729574,35.001996859427805
25.652996610561214,35.02630222654574
25.830993300297685,35.050776239649
26.01022504346819,35.075420068909914
26.190700409653346,35.10023489262023
26.372428027894973,35.12522189724741
26.5554165871086,35.150382277491396
26.739674836498935,35.17571723634168
26.92521158597821,35.2012279851349
27.112035706587367,35.226915743612665
27.30015613092028,35.25278173997996
27.48958185355075,35.278827210963804
27.680321931462636,35.30505340187242
27.87238548448286,35.33146156665478
28.06578169571745,35.35805296796052
28.260519811990676,35.38482887720034
28.456609144287057,35.411790574606826
28.654059068196624,35.43893934929558
28.852879024363165,35.46627649932692
29.053078518935628,35.493803331767936
29.254667124022603,35.521521162754965
29.457654478150054,35.54943131755652
29.662050286722092,35.57753513063669
29.867864322485055,35.60583394571889
30.075106425994772,35.6243104745943
30.283786506087043,35.64093981149228
30.49391454035148,35.65768453323069
30.705500575608458,35.674545440422406
30.91855472838956,35.69152333923548
31.133087185421246,35.70861904143165
31.349108204111904,35.72583336440519
31.566628113042352,35.743167131221945
31.785657312459563,35.76062117065874
32.00620627477402,35.77819631724295
32.2282855450604,35.79589341129245
32.451905741561745,35.81371329895575
32.677077556197226,35.83165683225249
32.90381175507326,35.849724869114155
33.132119178998295,35.867918273425104
33.36201074400119,35.88623791506385
33.59349744185307,35.90468466994471
33.826590340592965,35.923259420059615
34.06130058505689,35.941963053520325
34.297639397410805,35.96079646460088
34.535618077687126,35.979760553780366
34.775248004325015,35.998856227785936
35.01654063471449,36.01808439963623
35.25950750574412,36.037445988684944
35.50416023435271,36.056941920664855
35.75051051808472,36.07657312773206
35.99857013564954,36.09634054851053
36.24835094748474,36.11624512813702
36.499864896323054,36.136287818306215
36.75312400776343,36.15646957731629
37.008140390846044,36.17679137011467
37.264926238631205,36.19725416834421
37.523493828782414,36.21785895038963
37.78385552415333,36.23860670142432
38.0460237733789,36.259498413457386
38.310011111470565,36.28053508538115
38.57583016041556,36.30171772301888
38.84349362978051,36.32304733917287
39.113014317318985,36.344524953672874
39.384405109583454,36.36615159342488
39.657678982541434,36.38792829246019
39.93284900219587,36.409856091984864
40.209928325209965,36.4257936265053
40.488930199536085,36.441829421686336
40.769867965049265,36.457976483340545
41.05275505418505,36.474235583505
41.337604992581646,36.49060749957363
41.62443139972677,36.50709301433441
41.913247989608664,36.52369291600681
42.20406857137191,36.540407998279456
42.496907049977665,36.55723906034808
42.791777426868435,36.57418690695375
43.08869380063767,36.59125234842133
43.38767036770369,36.60843620069822
43.68872142298855,36.62573928539341
43.991861360601504,36.64316242981669
44.29710467452719,36.66070646701828
44.60446595931875,36.67837223582862
44.913959910795484,36.696160580898464
45.225601326745576,36.71407235273932
45.539405107633605,36.732108407764066
45.85538625731298,36.750269608327905
46.17355988374338,36.768556822769625
46.493941199712964,36.786970925453076
46.81654552356587,36.80551279680901
47.14138827993456,36.824183323377156
47.46848500047733,36.84298339784863
47.797851324621014,36.861913919108574
48.12950300030849,36.88097579227919
48.463455884751994,36.900169928762985
48.799725945191014,36.91949724628634
49.13832925965581,36.93895866894341
49.47928201773629,36.958555127240295
49.822600521355774,36.978287558139534
50.1683011855508,36.996461324968514
50.5164005392557,37.01152114082453
50.866915226093,37.02668545119286
51.2198620051692,37.04195498112244
51.57525775187602,37.057330460692995
51.933119458697426,37.07281262505007
52.29346423602185,37.088402214440066
52.65630931296043,37.104099974245706
53.021672038170784,37.11990665502163
53.38956988068642,37.13582301253032
53.76002043075213,37.151849807778206
54.13304140066484,37.16798780705206
54.50865062562059,37.18423778195562
54.886866064567315,37.20060050944655
55.26770580106341,37.21707677187347
55.65118804414249,37.23366735701348
56.03733112918391,37.250373058109744
56.42615351878945,37.267194673909465
56.81767380366609,37.28413300870206
57.211910703514846,37.301188872357585
57.60888306792594,37.31836308036553
58.00860987727984,37.335656453873725
58.41111024365494,37.35306981972768
58.816403411741284,37.37060401051005
59.224508759760695,37.38825986458048
59.63544580039345,37.40603822611572
60.04923418171099,37.42393994514988
60.465893688115564,37.43705987571905
60.885444241286066,37.449139042383074
61.307905901130546,37.461302021933115
61.733298866745464,37.47354939591591
62.16164347738128,37.48588174991332
62.59296021341505,37.498299673570344
63.027269697329594,37.510803760623325
63.46459269469953,37.523394608928314
63.90495011518425,37.53607282048966
64.34836301352743,37.5488390014888
64.79485259056395,37.56169376231326
65.2444401942334,37.57463771758579
65.69714732060088,37.58767148619379
66.15299561488483,37.600795691318915
66.61200687249178,37.614010960466814
67.07420304005862,37.62731792549719
67.53960621650184,37.64071722265397
68.00823865407413,37.65420949259576
68.48012275942848,37.667795380426455
68.9552810946893,37.68147553572608
69.43373637853124,37.695250612581866
69.91551148726552,37.7091212696195
70.40062945593358,37.722051211503
70.88911347940872,37.73324884737236
71.3809869135046,37.744524179510414
71.87627327609256,37.75587774702294
72.37499624822561,37.76731009275638
72.8771796752709,37.77882176332377
73.38284756804988,37.790413309130905
73.89202410398606,37.80208528440263
74.40473362826137,37.81383824720936
74.92100065497986,37.825672759493756
75.44084986833995,37.837589387097594
75.96430612381474,37.84958869978882
76.49139444933999,37.86167127128876
77.02214004651142,37.87383767929963
77.55656829178916,37.88608850553208
78.09470473771121,37.898424335733026
78.63657511411542,37.91084575971369
79.18220532936918,37.92335337137776
79.73162147160883,37.93594776874981
80.28484980998645,37.95176171686609
80.84191679592612,37.96769843550847
81.40284906438879,37.98374573316844
81.96767343514524,37.99990437711307
82.53641691405909,38.016175139933175
83.10910669437752,38.03255879958033
83.68577015803162,38.049056139404
84.2664348769458,38.065667948189045
84.85112861435556,38.082395020193395
85.43987932613558,38.09923815518606
86.03271516213591,38.11619815848534
86.62966446752799,38.13327584099734
87.23075578416012,38.150472019254764
87.83601785192172,38.167787515455906
88.445479610118,38.18522315750402
89.05917019885312,38.20277977904684
89.67711896042374,38.22045821951652
90.29935544072205,38.23840352490165
90.925909390648,38.25655175164518
91.55681076753238,38.274825902246036
92.19208973656869,38.293226850443446
92.83177667225556,38.31175547603921
93.47590215984928,38.330412664939736
94.12449699682564,38.349199309198426
94.77759219435308,38.368116307058294
95.43521897877493,38.38716456299495
96.09740879310259,38.4063449877598
96.76419329851916,38.42565849842366
97.43560437589264,38.44510601842052
98.11167412730097,38.46468847759176
98.79243487756642,38.48440681223058
99.47791917580126,38.50426196512679
100.16815979696426,38.52147711751915
100.86318974342718,38.53345092467779
101.56304224655342,38.545507813671676
102.26775076828653,38.55764836097504
102.97734900274986,38.56987314706205
103.69187087785828,38.58218275643459
104.41135055693952,38.59457777765019
105.1358224403684,38.607058803350135
105.86532116721123,38.61962643028786
106.59988161688177,38.632281259357434
107.33953891080954,38.64502389562231
108.08432841411832,38.657854948344266
108.83428573731777,38.670775031012504
109.58944673800576,38.68378476137302
110.34984752258259,38.69688476145811
111.11552444797758,38.71007565761612
111.88651412338757,38.723358080541416
112.66285341202705,38.7367326653045
113.44457943289089,38.7502000513824
114.23172956252871,38.76376088268923
115.02434143683229,38.77741580760702
115.82245295283518,38.79116547901664
116.62610227052438,38.80501055432909
117.43532781466513,38.81895169551689
118.25016827663764,38.83298956914575
119.07066261628742,38.84712484640642
119.8968500637882,38.86135820314682
120.7287701215173,38.87569031990431
121.56646256594462,38.89012188193825
122.40996744953408,38.904653579262764
123.25932510265886,38.919286106679735
124.11457613553003,38.934020163812015
124.97576144013777,38.948856455136884
125.8429221922069,38.9573366651324
126.7160998531651,38.96294236440174
127.59533617212567,38.968586959552475
128.48067318788384,38.97427072046879
129.37215323092656,38.979993918907496
130.26981892545606,38.98575682851104
131.17371319142873,38.99155972482055
132.08387924660613,38.99740288528905
133.00036060862237,39.00328658929469
133.92320109706446,39.009211118154134
134.85244483556687,39.01517675513601
135.78813625392226,39.02118378547443
136.7303200902048,39.02723249638262
137.67904139290994,39.03332317706671
138.63434552310815,39.03945611873951
139.5962781566132,39.04563161463444
140.56488528616708,39.05184996001957
141.5402132236378,39.05811145221171
142.52230860223492,39.064416390590665
143.5112183787386,39.07076507661351
144.5069898357443,39.077157813829025
145.50967058392467,39.083594907892206
146.51930856430462,39.09007666657886
147.53595205055464,39.096603399800365
148.5596496512984,39.10317541961843
149.59045031243645,39.10979304026007
150.62840331948755,39.11645657813259
151.67355829994383,39.123166351838734
152.72596522564484,39.12992268219191
153.78567441516628,39.13672589223154
154.85273653622542,39.14357630723848
155.92720260810475,39.15047425475062
157.0091240040902,39.15742006457849
158.09855245392842,39.16441406882105
159.19554004629973,39.171456601881594
160.30013923130812,39.16754452400673
161.41240282299017,39.163537077552256
162.53238400183892,39.15950182490367
163.66013631734782,39.15543857312405
164.7957136905704,39.15134712793773
165.93917041669815,39.147227293721066
167.09056116765746,39.143078873493025
168.24994099472238,39.13890166890582
169.41736533114806,39.13469548023538
170.59288999482052,39.130460106371835
171.776571190925,39.12619534480989
172.96846551463454,39.12190099163913
174.1686299538145,39.117576841534294
175.37712189174854,39.113222687745434
176.59399910988185,39.10883832208804
177.8193197905832,39.1044235349331
179.05314251992803,39.09997811519704
180.29552629049837,39.09550185033167
181.5465305042045,39.09099452631402
182.80621497512467,39.08645592763607
184.07463993236445,39.081885837294465
185.35186602293768,39.07728403678018
186.6379543146648,39.07265030606799
187.93296629909383,39.067984423606035
189.23696389444007,39.06328616630516
190.55000944854584,39.0585553095283
191.87216574186297,39.0537916270797
193.20349599045295,39.04899489119412
194.54406384901077,39.04416487252594
195.89393341390794,39.0393013401382
197.25316922625643,39.03440406149155
198.62183627499604,39.02947280243313
200.00000000000003,39.02012016421499
201.38772629520545,39.00216114337761
202.78508151176308,38.98407751151297
204.19213246120933,38.96586840399108
205.608946418662,38.947532950182584
207.03559112603529,38.92907027341717
208.47213479528025,38.91047949094161
209.91864611164556,38.891759713877605
211.37519423696082,38.872910047179246
212.84184881294496,38.85392958959021
214.31867996453425,38.834817433600726
215.80575830323676,38.81557266540412
217.3031549305077,38.79619436485315
218.81094144114851,38.77668160541602
220.3291899267314,38.757033454132085
221.85797297904458,38.737248971567205
223.39736369356456,38.71732721176886
224.9474356729504,38.69726722222092
226.50826303056232,38.6770680437981
228.07992039400665,38.65672871072008
229.66248290870226,38.63624825050537
231.2560262414751,38.61562568392476
232.86062658417538,38.59486002495456
234.47636065731973,38.57395028072942
236.10330571376113,38.552895451494834
237.74153954238068,38.5316945305594
239.3911404718086,38.51034650424664
241.05218737416854,38.48885035184656
242.72475966884815,38.46720504556682
244.40893732629777,38.44540955048362
246.10480087185235,38.4234628244922
247.81243138958317,38.401363818257025
249.531910526174,38.37911147516159
251.2633204948243,38.35149679844113
253.0067440791808,38.32130220473057
254.76226463729574,38.290898101861686
256.529966105612,38.26028303612763
258.30993300297683,38.22945554373483
260.102250434682,38.19841415073298
261.90700409653357,38.167157372944594
263.7242802789497,38.13568371589401
265.55416587108584,38.103991674735944
267.3967483649894,38.07207973418356
269.25211585978224,38.039946368436
271.1203570658738,38.00759004110543
273.00156130920277,37.9750092051436
274.8958185355074,37.942202302767846
276.80321931462635,37.909167765386634
278.72385484482874,37.875904013524554
280.65781695717465,37.8424094567468
282.6051981199068,37.808682493583106
284.5660914428704,37.77472151145122
286.54059068196625,37.74052488657975
288.5287902436318,37.70609098393057
290.53078518935627,37.671418157120634
292.54667124022603,37.63650474834323
294.5765447815004,37.60134908828875
296.6205028672209,37.565949496064846
298.6786432248507,37.5303042791161
300.7510642599477,37.495114033681034
302.83786506087046,37.4635145053374
304.93914540351466,37.43169571951177
307.0550057560846,37.399656154857276
309.18554728389574,37.36739427947099
311.33087185421243,37.334908550820685
313.49108204111906,37.302197415671046
315.66628113042333,37.26925931000943
317.8565731245956,37.23609265897112
320.0620627477404,37.20269587676395
322.282855450604,37.169067366592564
324.51905741561745,37.13520552058201
326.77077556197213,37.1011087197009
329.0381175507325,37.06677533368396
331.32119178998306,37.032203720954115
333.62010744001185,36.997392228544015
335.93497441853066,36.96233919201695
338.26590340592946,36.927042935387306
340.6130058505689,36.89150177104042
342.97639397410825,36.855713999651904
345.3561807768712,36.81967791010638
347.75248004325016,36.783391779415666
350.1654063471447,36.74685387263639
352.5950750574412,36.71006244278707
355.04160234352725,36.67301573076455
357.5051051808471,36.63571196525991
359.9857013564953,36.59814936267376
362.4835094748472,36.56032612703099
364.9986489632305,36.52224044989485
367.53124007763455,36.48389051028056
370.08140390846046,36.44527447456816
372.649262386312,36.40639049641488
375.234938287824,36.36723671666687
377.8385552415333,36.327811263270306
380.4602377337892,36.288112251181836
383.1001111147056,36.24813778227853
385.7583016041556,36.20788594526705
388.43493629780494,36.16735481559232
391.1301431731899,36.126542455345465
393.84405109583474,36.08544691317119
396.5767898254143,36.04406622417446
399.3284900219587,36.00239840982656
402.09928325209944,35.96334302927657
404.8893019953608,35.930271505591826
407.69867965049286,35.89697051079188
410.5275505418505,35.86343845266124
413.37604992581646,35.829673727936594
416.2443139972675,35.7956747222302
419.13247989608664,35.76143980995265
422.04068571371937,35.72696735423519
424.96907049977665,35.69225570685144
427.91777426868435,35.65730320813857
430.8869380063765,35.62210818691797
433.8767036770369,35.58666896041532
436.8872142298857,35.550983834180165
439.918613606015,35.5150511020049
442.9710467452719,35.47886904584314
446.0446595931873,35.44243593572764
449.13959910795484,35.4057500296875
452.25601326745596,35.368809573665
455.39405107633604,35.331612801431596
458.55386257312983,35.29415793450357
461.73559883743354,35.256443182056955
464.93941199712964,35.21846674084189
468.16545523565895,35.180226795096466
471.41388279934563,35.14172151645986
474.6848500047733,35.10294906388491
477.9785132462096,35.06390758355011
481.2950300030849,35.024595208771
484.6345588475202,34.985010059910834
487.9972594519101,34.94515024429082
491.3832925965581,34.905013856099515
494.7928201773624,34.86459897630177
498.22600521355776,34.823903672546955
501.6830118555083,34.787033651424984
505.164005392557,34.75180890607411
508.6691522609297,34.71633974919641
512.1986200516914,34.68062448491036
515.7525775187603,34.64466140556736
519.3311945869746,34.60844879167006
522.9346423602185,34.571984911790146
526.5630931296041,34.53526802248556
530.2167203817073,34.49829636821714
533.8956988068643,34.461068181264686
537.6002043075216,34.42358168164245
541.3304140066483,34.38583507701402
545.0865062562057,34.3478265626066
548.8686606456725,34.30955432112475
552.677058010634,34.271016522663494
556.5118804414252,34.23221132462082
560.3733112918392,34.193136871609575
564.2615351878942,34.15379129536876
568.1767380366604,34.1141727146742
572.1191070351484,34.07427923524859
576.0888306792597,34.034108949670944
580.0860987727984,33.9936599372854
584.1111024365491,33.95293026410934
588.1640341174123,33.911917982740974
592.2450875976069,33.870621132266194
596.3544580039347,33.82903773816485
600.49234181711,33.78809514109957
604.6589368811553,33.75202246184886
608.8544424128606,33.715699487570475
613.0790590113054,33.67912448155946
617.332988667455,33.6422956950605
621.6164347738129,33.60521136718432
625.9296021341502,33.56786972482347
630.272696973296,33.53026898256756
634.6459269469954,33.492407342617916
639.0495011518428,33.454282994701586
643.4836301352744,33.4158941159848
647.9485259056391,33.37723887098582
652.444401942334,33.33831541148717
656.9714732060088,33.299121876447295
661.5299561488486,33.259656391911534
666.1200687249178,33.219917070922556
670.7420304005858,33.17990201343013
675.3960621650184,33.13960930620026
680.0823865407413,33.09903702272377
684.8012275942853,33.058183223124075
689.5528109468929,33.01704595406458
694.3373637853119,32.97562324865515
699.1551148726552,32.93391312635813
704.0062945593359,32.89431988493914
708.8911347940872,32.85546849762368
713.809869135046,32.816347534849314
718.7627327609252,32.77695512613128
723.7499624822561,32.73728938800618
728.771796752709,32.69734842394202
733.8284756804989,32.657130324247404
738.9202410398606,32.61663316598035
744.0473362826133,32.575855012856266
749.2100065497987,32.53479391515536
754.4084986833996,32.49344790962952
759.6430612381473,32.45181501940833
764.9139444934,32.40989325390461
770.2214004651139,32.36768060871924
775.5656829178915,32.325175065545295
780.9470473771121,32.282374592071584
786.3657511411542,32.239277141885424
791.8220532936919,32.19588065437488
797.3162147160879,32.15218305463015
802.8484980998645,32.112722106779714
808.4191679592622,32.08286828437088
814.0284906438878,32.05280731729021
819.6767343514524,32.02253776823715
825.3641691405904,31.99205818993827
831.0910669437752,31.96136712507802
836.857701580317,31.9304631062291
842.6643487694579,31.899344655782265
848.5112861435555,31.868010285875673
854.3987932613554,31.836458498323765
860.3271516213591,31.80468778454562
866.2966446752807,31.772696625492838
