frequency,SPL
20.0,21.99043414522425
20.138772629520556,22.032612877109614
20.27850815117631,22.07508427167166
20.419213246120933,22.117850359588836
20.560894641866188,22.16091318562975
20.70355911260353,22.20427480875087
20.847213479528037,22.247937302195037
20.991864611164555,22.291902753590534
21.137519423696084,22.33617326505094
21.284184881294486,22.380750953275626
21.431867996453427,22.42563794965096
21.580575830323685,22.470836400352205
21.73031549305077,22.516348466446157
21.88109414411485,22.56217632399444
22.03291899267313,22.60832216415759
22.185797297904458,22.654788193299787
22.339736369356466,22.701576633094355
22.494743567295043,22.748689720629994
22.650826303056235,22.79612970851774
22.807992039400652,22.843898864998668
22.966248290870226,22.891999474052337
23.125602624147522,22.940433835506003
23.28606265841754,22.989204265144572
23.447636065731974,23.03831309482133
23.610330571376103,23.087762672569433
23.77415395423807,23.137555362714178
23.939114047180873,23.187693545986036
24.105218737416855,23.238179619634497
24.272475966884812,23.28901599754267
24.440893732629764,23.34020511034273
24.610480087185234,23.391749405532092
24.781243138958327,23.443651347590468
24.9531910526174,23.495913418097675
25.12633204948242,23.548538115852306
25.300674407918066,23.601527956991188
25.476226463729574,23.65488547510971
25.652996610561214,23.708613221382937
25.830993300297685,23.762713764687586
26.01022504346819,23.81718969172488
26.190700409653346,23.8720436071442
26.372428027894973,23.92727813366763
26.5554165871086,23.982895912215366
26.739674836498935,24.038899602031954
26.92521158597821,24.09529188081348
27.112035706587367,24.15207544483556
27.30015613092028,24.20925300908229
27.48958185355075,24.26682730737602
27.680321931462636,24.324801092508107
27.87238548448286,24.38317713637049
28.06578169571745,24.441958230088265
28.260519811990676,24.501147184153105
28.456609144287057,24.560746828557654
28.654059068196624,24.62076001293083
28.852879024363165,24.68118960667407
29.053078518935628,24.742038499098545
29.254667124022603,24.80330959956327
29.457654478150054,24.865005837614255
29.662050286722092,24.927130163124534
29.867864322485055,24.989685546435226
30.075106425994772,25.040177182532542
30.283786506087043,25.08855494821923
30.49391454035148,25.137268389393657
30.705500575608458,25.18631983518432
30.91855472838956,25.235711630880694
31.133087185421246,25.28544613804534
31.349108204111904,25.33552573462684
31.566628113042352,25.385952815073498
31.785657312459563,25.43672979044778
32.00620627477402,25.487859088541654
32.2282855450604,25.53934315399263
32.451905741561745,25.591184448400654
32.677077556197226,25.64338545044582
32.90381175507326,25.695948656006856
33.132119178998295,25.748876578280477
33.36201074400119,25.802171747901546
33.59349744185307,25.85583671306407
33.826590340592965,25.90987403964303
34.06130058505689,25.964286311317068
34.297639397410805,26.01907612969203
34.535618077687126,26.074246114425335
34.775248004325015,26.129798903351237
35.01654063471449,26.185737152606965
35.25950750574412,26.24206353675969
35.50416023435271,26.298780748934433
35.75051051808472,26.355891500942803
35.99857013564954,26.413398523412674
36.24835094748474,26.47130456591875
36.499864896323054,26.52961239711401
36.75312400776343,26.5883248048621
37.008140390846044,26.647444596370626
37.264926238631205,26.706974598325367
37.523493828782414,26.766917657025438
37.78385552415333,26.82727663851938
38.0460237733789,26.888054428742173
38.310011111470565,26.949253933653253
38.57583016041556,27.01087807937542
38.84349362978051,27.072929812334777
39.113014317318985,27.135412099401595
39.384405109583454,27.19832792803215
39.657678982541434,27.261680306411577
39.93284900219587,27.325472263597703
40.209928325209965,27.371293492782286
40.488930199536085,27.41739571439406
40.769867965049265,27.46381782233183
41.05275505418505,27.51056203616892
41.337604992581646,27.557630590879455
41.62443139972677,27.605025736945244
41.913247989608664,27.65274974046333
42.20406857137191,27.700804883254396
42.496907049977665,27.749193462971814
42.791777426868435,27.797917793211536
43.08869380063767,27.84698020362271
43.38767036770369,27.896383040019053
43.68872142298855,27.94612866449102
43.991861360601504,27.996219455518744
44.29710467452719,28.04665780808575
44.60446595931875,28.09744613379348
44.913959910795484,28.148586860976575
45.225601326745576,28.200082434819016
45.539405107633605,28.251935317470995
45.85538625731298,28.304147988166658
46.17355988374338,28.356722943342664
46.493941199712964,28.409662696757504
46.81654552356587,28.462969779611726
47.14138827993456,28.51664674066893
47.46848500047733,28.57069614637766
47.797851324621014,28.62512058099411
48.12950300030849,28.67992264670565
48.463455884751994,28.735104963755283
48.799725945191014,28.790670170566923
49.13832925965581,28.846620923871512
49.47928201773629,28.902959898834098
49.822600521355774,28.959689789181677
50.1683011855508,29.015059862994487
50.5164005392557,29.06746350569214
50.866915226093,29.120230757954467
51.2198620051692,29.173364142734247
51.57525775187602,29.226866200490083
51.933119458697426,29.2807394893079
52.29346423602185,29.334986585023227
52.65630931296043,29.389610081344365
53.021672038170784,29.444612589976412
53.38956988068642,29.499996740746106
53.76002043075213,29.555765181727608
54.13304140066484,29.611920579369073
54.50865062562059,29.668465618620164
54.886866064567315,29.725403003060414
55.26770580106341,29.7827354550285
55.65118804414249,29.840465715752412
56.03733112918391,29.898596545480505
56.42615351878945,29.957130723613478
56.81767380366609,30.016071048837265
57.211910703514846,30.07542033925685
57.60888306792594,30.13518143253103
58.00860987727984,30.195357186008042
58.41111024365494,30.255950476862225
58.816403411741284,30.316964202231564
59.224508759760695,30.378401279356215
59.63544580039345,30.440264645718003
60.04923418171099,30.485622892127747
60.465893688115564,30.527903899689687
60.885444241286066,30.570478279581533
61.307905901130546,30.61334806740577
61.733298866745464,30.656515312889173
62.16164347738128,30.699982079980824
62.59296021341505,30.743750446950777
63.027269697329594,30.78782250648944
63.46459269469953,30.832200365807633
63.90495011518425,30.87688614673733
64.34836301352743,30.921881985833117
64.79485259056395,30.967190034474346
65.2444401942334,31.012812458967993
65.69714732060088,31.058751440652237
66.15299561488483,31.10500917600078
66.61200687249178,31.15158787672782
67.07420304005862,31.19848976989384
67.53960621650184,31.245717098012065
68.00823865407413,31.2932721191557
68.48012275942848,31.341157107065882
68.9552810946893,31.389374351260415
69.43373637853124,31.437926157143195
69.91551148726552,31.48551102312806
70.40062945593358,31.531327558524367
70.88911347940872,31.577461997975306
71.3809869135046,31.62391654729994
71.87627327609256,31.67069342762273
72.37499624822561,31.717794875479672
72.8771796752709,31.765223142925283
73.38284756804988,31.81298049764025
73.89202410398606,31.86106922303985
74.40473362826137,31.909491618383147
74.92100065497986,31.95824999888292
75.44084986833995,32.007346695816345
75.96430612381474,32.056784056636495
76.49139444933999,32.10656444508451
77.02214004651142,32.156690241302705
77.55656829178916,32.207163841948294
78.09470473771121,32.25798766030803
78.63657511411542,32.309164126413584
79.18220532936918,32.36069568715768
79.73162147160883,32.41258480641116
80.28484980998645,32.4522015811716
80.84191679592612,32.49204063668387
81.40284906438879,32.5321561207207
81.96767343514524,32.57254995131773
82.53641691405909,32.61322405981919
83.10910669437752,32.654180390970154
83.68577015803162,32.69542090300958
84.2664348769458,32.73694756776394
84.85112861435556,32.77876237074145
85.43987932613558,32.82086731122706
86.03271516213591,32.863264402378036
86.62966446752799,32.90595567132015
87.23075578416012,32.948943159244706
87.83601785192172,32.99222892150604
88.445479610118,33.03581502771988
89.05917019885312,33.079703561862196
89.67711896042374,33.12389662236895
90.29935544072205,33.16583393752379
90.925909390648,33.20666900843176
91.55681076753238,33.24778741884806
92.19208973656869,33.28919113476112
92.83177667225556,33.330882135800636
93.47590215984928,33.372862415332236
94.12449699682564,33.41513398055276
94.77759219435308,33.45769885258627
95.43521897877493,33.50055906658064
96.09740879310259,33.5437166718049
96.76419329851916,33.587173731747214
97.43560437589264,33.63093232421348
98.11167412730097,33.67499454142679
98.79243487756642,33.71936249012736
99.47791917580126,33.7640382916733
100.16815979696426,33.804312297325474
100.86318974342718,33.835772509546246
101.56304224655342,33.86745101258578
102.26775076828653,33.89934932108362
102.97734900274986,33.93146896018883
103.69187087785828,33.96381146563294
104.41135055693952,33.99637838380333
105.1358224403684,34.02917127181722
105.86532116721123,34.06219169759608
106.59988161688177,34.095441239940584
107.33953891080954,34.128921488606174
108.08432841411832,34.16263404437898
108.83428573731777,34.196580519152405
109.58944673800576,34.2307625360042
110.34984752258259,34.26518172927403
111.11552444797758,34.299839744641666
111.88651412338757,34.33473823920562
112.66285341202705,34.36987888156243
113.44457943289089,34.40526335188638
114.23172956252871,34.440893342009886
115.02434143683229,34.47677055550435
115.82245295283518,34.51289670776164
116.62610227052438,34.54927352607609
117.43532781466513,34.5859027497271
118.25016827663764,34.62278613006227
119.07066261628742,34.65992543058118
119.8968500637882,34.697322427019664
120.7287701215173,34.73497890743475
121.56646256594462,34.772896672290116
122.40996744953408,34.811077534542214
123.25932510265886,34.84952331972691
124.11457613553003,34.88823586604681
124.97576144013777,34.927217024459125
125.8429221922069,34.96646865876417
126.7160998531651,35.0059926456945
127.59533617212567,35.04579087500459
128.48067318788384,35.08586524956126
129.37215323092656,35.11595835011839
130.26981892545606,35.13958828719082
131.17371319142873,35.1633821836884
132.08387924660613,35.18734117726515
133.00036060862237,35.21146641346886
133.92320109706446,35.235759045795874
134.85244483556687,35.260220235746175
135.78813625392226,35.284851152879014
136.7303200902048,35.309652974868754
137.67904139290994,35.33462688756121
138.63434552310815,35.35977408503036
139.5962781566132,35.3850957696354
140.56488528616708,35.41059315207826
141.5402132236378,35.436267451461504
142.52230860223492,35.46211989534657
143.5112183787386,35.48815171981251
144.5069898357443,35.51436416951506
145.50967058392467,35.5407584977462
146.51930856430462,35.56733596649397
147.53595205055464,35.594097846502954
148.5596496512984,35.62104541733493
149.59045031243645,35.64817996743008
150.62840331948755,35.675502794168615
151.67355829994383,35.703015203932765
152.72596522564484,35.73071851216929
153.78567441516628,35.75861404345233
154.85273653622542,35.78670313154677
155.92720260810475,35.81498711947201
157.0091240040902,35.84346735956612
158.09855245392842,35.87214521355059
159.19554004629973,35.901022052595394
160.30013923130812,35.91306915026199
161.41240282299017,35.925094247675275
162.53238400183892,35.93720278280798
163.66013631734782,35.94939533460368
164.7957136905704,35.96167248602305
165.93917041669815,35.97403482407169
167.09056116765746,35.98648293982823
168.24994099472238,35.99901742847257
169.41736533114806,36.01163888931436
170.59288999482052,36.02434792582162
171.776571190925,36.037145145649625
172.96846551463454,36.050031160669924
174.1686299538145,36.06300658699965
175.37712189174854,36.07607204503092
176.59399910988185,36.08922815946054
177.8193197905832,36.102475559319835
179.05314251992803,36.11581487800478
180.29552629049837,36.129246753306205
181.5465305042045,36.14277182744039
182.80621497512467,36.156390747079676
184.07463993236445,36.17010416338344
185.35186602293768,36.18391273202921
186.6379543146648,36.19781711324403
187.93296629909383,36.211817971836
189.23696389444007,36.22591597722609
190.55000944854584,36.240111803480126
191.87216574186297,36.254406129341035
193.20349599045295,36.26879963826129
194.54406384901077,36.28329301843559
195.89393341390794,36.29788696283377
197.25316922625643,36.312582169233906
198.62183627499604,36.32737934025571
200.00000000000003,36.33905529300567
201.38772629520545,36.34453558012632
202.78508151176308,36.350053892939684
204.19213246120933,36.35561049529203
205.608946418662,36.36120565286035
207.03559112603529,36.36683963316509
208.47213479528025,36.37251270558291
209.91864611164556,36.37822514135957
211.37519423696082,36.38397721362292
212.84184881294496,36.38976919739593
214.31867996453425,36.39560136960985
215.80575830323676,36.40147400911747
217.3031549305077,36.407387396706426
218.81094144114851,36.41334181511263
220.3291899267314,36.41933754903382
221.85797297904458,36.42537488514311
223.39736369356456,36.43145411210276
224.9474356729504,36.437575520577944
226.50826303056232,36.44373940325065
228.07992039400665,36.44994605483368
229.66248290870226,36.456195772084754
231.2560262414751,36.46248885382066
232.86062658417538,36.468825600931574
234.47636065731973,36.47520631639545
236.10330571376113,36.48163130529248
237.74153954238068,36.47470056476922
239.3911404718086,36.46534558897726
241.05218737416854,36.4559257024558
242.72475966884815,36.44644045481323
244.40893732629777,36.4368893925328
246.10480087185235,36.427272058951004
247.81243138958317,36.41758799423571
249.531910526174,36.40783673536416
251.2633204948243,36.398017816100875
253.0067440791808,36.38813076697533
254.76226463729574,36.378175115259516
256.529966105612,36.368150384945345
258.30993300297683,36.35805609672187
260.102250434682,36.347891767952405
261.90700409653357,36.337656912651404
263.7242802789497,36.32735104146126
265.55416587108584,36.31697366162889
267.3967483649894,36.30652427698218
269.25211585978224,36.29600238790625
271.1203570658738,36.285407491319596
273.00156130920277,36.274739080649994
274.8958185355074,36.26399664581032
276.80321931462635,36.253179673174145
278.72385484482874,36.24228764555116
280.65781695717465,36.23132004216247
282.6051981199068,36.22027633861569
284.5660914428704,36.20915600687987
286.54059068196625,36.19795851526025
288.5287902436318,36.186683328372816
290.53078518935627,36.175329907118744
292.54667124022603,36.16389770865861
294.5765447815004,36.152386186386394
296.6205028672209,36.1407947899034
298.6786432248507,36.12912296499192
300.7510642599477,36.11617532369404
302.83786506087046,36.09661351372217
304.93914540351466,36.0769159715599
307.0550057560846,36.05708175541158
309.18554728389574,36.03710991694679
311.33087185421243,36.016999501255
313.49108204111906,35.9967495467999
315.66628113042333,35.97635908537342
317.8565731245956,35.95582714204948
320.0620627477404,35.93515273513732
322.282855450604,35.91433487613462
324.51905741561745,35.89337256968018
326.77077556197213,35.87226481350636
329.0381175507325,35.85101059839117
331.32119178998306,35.829608908109975
333.62010744001185,35.80805871938696
335.93497441853066,35.78635900184616
338.26590340592946,35.76450871796221
340.6130058505689,35.742506823010736
342.97639397410825,35.72035226501843
345.3561807768712,35.69804398471269
347.75248004325016,35.67558091547105
350.1654063471447,35.652961983270124
352.5950750574412,35.63018610663427
355.04160234352725,35.60725219658389
357.5051051808471,35.58415915658338
359.9857013564953,35.56090588248864
362.4835094748472,35.53749126249435
364.9986489632305,35.513914177080764
367.53124007763455,35.49017349896021
370.08140390846046,35.46626809302319
372.649262386312,35.44219681628409
375.234938287824,35.41795851782654
377.8385552415333,35.39355203874838
380.4602377337892,35.368976212106276
383.1001111147056,35.34422986285988
385.7583016041556,35.319311807815694
388.43493629780494,35.29422085557045
391.1301431731899,35.268955806454194
393.84405109583474,35.2435154524729
396.5767898254143,35.21789857725071
399.3284900219587,35.19210395597178
402.09928325209944,35.16525060026314
404.8893019953608,35.13631443910313
407.69867965049286,35.107177500584505
410.5275505418505,35.07783839158716
413.37604992581646,35.04829570932464
416.2443139972675,35.01854804127709
419.13247989608664,34.98859396512369
422.04068571371937,34.95843204867465
424.96907049977665,34.92806084980277
427.91777426868435,34.897478916374425
430.8869380063765,34.8666847861802
433.8767036770369,34.83567698686493
436.8872142298857,34.804454035857326
439.918613606015,34.77301444029909
442.9710467452719,34.741356696973526
446.0446595931873,34.70947929223365
449.13959910795484,34.677380701929884
452.25601326745596,34.645059391337085
455.39405107633604,34.61251381508128
458.55386257312983,34.579742417065646
461.73559883743354,34.546743630396236
464.93941199712964,34.513515877306965
468.16545523565895,34.48005756908423
471.41388279934563,34.44636710599093
474.6848500047733,34.412442877189974
477.9785132462096,34.37828326066725
481.2950300030849,34.34388662315412
484.6345588475202,34.30925132004926
487.9972594519101,34.27437569534011
491.3832925965581,34.2392580815236
494.7928201773624,34.203896799526504
498.22600521355776,34.168290158625105
501.6830118555083,34.13132109634202
505.164005392557,34.093579308542736
508.6691522609297,34.05557564438667
512.1986200516914,34.017308286810284
515.7525775187603,33.978775406142105
519.3311945869746,33.939975160015265
522.9346423602185,33.90090569327938
526.5630931296041,33.86156513791184
530.2167203817073,33.821951612928544
533.8956988068643,33.78206322429392
537.6002043075216,33.74189806483039
541.3304140066483,33.70145421412717
545.0865062562057,33.660729738448445
548.8686606456725,33.619722690640934
552.677058010634,33.57843111004076
556.5118804414252,33.536853022379745
560.3733112918392,33.49498643969097
564.2615351878942,33.45282936021376
568.1767380366604,33.41037976829796
572.1191070351484,33.36763563430753
576.0888306792597,33.32459491452359
580.0860987727984,33.2812555510466
584.1111024365491,33.23761547169804
588.1640341174123,33.1936725899213
592.2450875976069,33.149424804681914
596.3544580039347,33.104870000367114
600.49234181711,33.06093624505317
604.6589368811553,33.02185647512304
608.8544424128606,32.98250554507119
613.0790590113054,32.94288157341747
617.332988667455,32.90298266562683
621.6164347738129,32.86280691401874
625.9296021341502,32.82235239767597
630.272696973296,32.78161718235275
634.6459269469954,32.74059932038231
639.0495011518428,32.699296850583714
643.4836301352744,32.65770779816814
647.9485259056391,32.61583017464442
652.444401942334,32.57366197772398
656.9714732060088,32.531201191225094
661.5299561488486,32.48844578497651
666.1200687249178,32.44539371472037
670.7420304005858,32.40204292201443
675.3960621650184,32.358391334133714
680.0823865407413,32.31443686397135
684.8012275942853,32.2701774099388
689.5528109468929,32.2256108558654
694.3373637853119,32.18073507089712
699.1551148726552,32.13554790939475
704.0062945593359,32.09491988493914
708.8911347940872,32.056068497623684
713.809869135046,32.016947534849315
718.7627327609252,31.977555126131275
723.7499624822561,31.93788938800618
728.771796752709,31.897948423942015
733.8284756804989,31.857730324247406
738.9202410398606,31.817233165980355
744.0473362826133,31.776455012856264
749.2100065497987,31.735393915155363
754.4084986833996,31.694047909629525
759.6430612381473,31.652415019408327
764.9139444934,31.61049325390461
770.2214004651139,31.56828060871924
775.5656829178915,31.525775065545293
780.9470473771121,31.482974592071578
786.3657511411542,31.439877141885425
791.8220532936919,31.39648065437488
797.3162147160879,31.352783054630144
802.8484980998645,31.30899808203086
808.4191679592622,31.265379049898335
814.0284906438878,31.221457361376512
819.6767343514524,31.17723091644423
825.3641691405904,31.132697600509065
831.0910669437752,31.087855284306215
836.857701580317,31.042701823796705
842.6643487694579,30.997235060064856
848.5112861435555,30.951452819215067
854.3987932613554,30.905352912267873
