frequency,SPL
20.0,31.125048526248708
20.138772629520556,31.145132583819127
20.27850815117631,31.165355997263568
20.419213246120933,31.185719733521086
20.560894641866188,31.206224766239977
20.70355911260353,31.226872075824303
20.847213479528037,31.24766264948081
20.991864611164555,31.268597481266088
21.137519423696084,31.289677572134142
21.284184881294486,31.31090392998421
21.431867996453427,31.332277569708975
21.580575830323685,31.353799513243096
21.73031549305077,31.375470789612045
21.88109414411485,31.39729243498133
22.03291899267313,31.419265492706042
22.185797297904458,31.441391013380702
22.339736369356466,31.463670054889537
22.494743567295043,31.486103682457045
22.650826303056235,31.508692968698913
22.807992039400652,31.53143899367332
22.966248290870226,31.554342844932567
23.125602624147522,31.577405617575085
23.28606265841754,31.600628414297784
23.447636065731974,31.624012345448783
23.610330571376103,31.647558529080502
23.77415395423807,31.67126809100311
23.939114047180873,31.695142164838355
24.105218737416855,31.719181892073774
24.272475966884812,31.743388422117263
24.440893732629764,31.76776291235204
24.610480087185234,31.79230652819197
24.781243138958327,31.817020443137302
24.9531910526174,31.841905838830773
25.12633204948242,31.866963905114094
25.300674407918066,31.892195840084852
25.476226463729574,31.917602850153806
25.652996610561214,31.943186150102534
25.830993300297685,31.968946963141548
26.01022504346819,31.994886520968763
26.190700409653346,32.02100606382839
26.372428027894973,32.047306840570236
26.5554165871086,32.07379010870944
26.739674836498935,32.10045713448653
26.92521158597821,32.12730919292806
27.112035706587367,32.154347567907486
27.30015613092028,32.1815735522066
27.48958185355075,32.20898844757734
27.680321931462636,32.23659356480401
27.87238548448286,32.26439022376597
28.06578169571745,32.29237975350073
28.260519811990676,32.32056349226751
28.456609144287057,32.348942787611215
28.654059068196624,32.37751899642685
28.852879024363165,32.40629348502444
29.053078518935628,32.43526762919432
29.254667124022603,32.46444281427293
29.457654478150054,32.493820435209045
29.662050286722092,32.52340189663048
29.867864322485055,32.553188612911235
30.075106425994772,32.57944456012167
30.283786506087043,32.60514576819955
30.49391454035148,32.63102530748876
30.705500575608458,32.657084415363876
30.91855472838956,32.68332433778513
31.133087185421246,32.709746329358026
31.349108204111904,32.73635165339331
31.566628113042352,32.76314158196737
31.785657312459563,32.790117395983074
32.00620627477402,32.817280385231
32.2282855450604,32.84463184845111
32.451905741561745,32.87217309339483
32.677077556197226,32.89990543688761
32.90381175507326,32.92783020489185
33.132119178998295,32.95594873257032
33.36201074400119,32.98426236435
33.59349744185307,33.01277245398635
33.826590340592965,33.041480364628036
34.06130058505689,33.07038746888211
34.297639397410805,33.09949514887965
34.535618077687126,33.128804796341804
34.775248004325015,33.158317812646395
35.01654063471449,33.188035608894864
35.25950750574412,33.21795960597979
35.50416023435271,33.248091234652776
35.75051051808472,33.27843193559289
35.99857013564954,33.30898315947556
36.24835094748474,33.33974636704189
36.499864896323054,33.37072302916854
36.75312400776343,33.401914626938044
37.008140390846044,33.433322651709624
37.264926238631205,33.464948605190486
37.523493828782414,33.496793999507624
37.78385552415333,33.52886035728014
38.0460237733789,33.56114921169201
38.310011111470565,33.59366210656544
38.57583016041556,33.62640059643461
38.84349362978051,33.65936624662006
39.113014317318985,33.69256063330352
39.384405109583454,33.72598534360325
39.657678982541434,33.75964197564994
39.93284900219587,33.793532138663124
40.209928325209965,33.82339986627697
40.488930199536085,33.85346629270772
40.769867965049265,33.88374133899128
41.05275505418505,33.91422645266392
41.337604992581646,33.944923091305824
41.62443139972677,33.97583272261083
41.913247989608664,34.00695682445652
42.20406857137191,34.03829688497494
42.496907049977665,34.06985440262373
42.791777426868435,34.10163088625779
43.08869380063767,34.13362785520138
43.38767036770369,34.16584683932083
43.68872142298855,34.19828937909761
43.991861360601504,34.230957025702054
44.29710467452719,34.263851341067465
44.60446595931875,34.29697389796486
44.913959910795484,34.33032628007811
45.225601326745576,34.36391008207969
45.539405107633605,34.397726909706925
45.85538625731298,34.43177837983875
46.17355988374338,34.46606612057304
46.493941199712964,34.50059177130443
46.81654552356587,34.53535698280271
47.14138827993456,34.57036341729177
47.46848500047733,34.60561274852903
47.797851324621014,34.64110666188554
48.12950300030849,34.67684685442646
48.463455884751994,34.7128350349923
48.799725945191014,34.74907292428059
49.13832925965581,34.78556225492811
49.47928201773629,34.82230477159381
49.822600521355774,34.85930223104214
50.1683011855508,34.89627252191048
50.5164005392557,34.932956874469724
50.866915226093,34.96989576623231
51.2198620051692,35.00709096335197
51.57525775187602,35.04454424423712
51.933119458697426,35.08225739963591
52.29346423602185,35.1202322327218
52.65630931296043,35.15847055917983
53.021672038170784,35.19697420729343
53.38956988068642,35.23574501803176
53.76002043075213,35.27478484513783
54.13304140066484,35.31409555521709
54.50865062562059,35.35367902782664
54.886866064567315,35.39353715556517
55.26770580106341,35.4336718441634
55.65118804414249,35.474085012575216
56.03733112918391,35.51477859306943
56.42615351878945,35.55575453132213
56.81767380366609,35.597014786509746
57.211910703514846,35.63856133140272
57.60888306792594,35.68039615245981
58.00860987727984,35.72252124992307
58.41111024365494,35.76493863791353
58.816403411741284,35.80765034452743
59.224508759760695,35.85065841193323
59.63544580039345,35.893964896469264
60.04923418171099,35.933720273435306
60.465893688115564,35.972980021659964
60.885444241286066,36.012512178809395
61.307905901130546,36.05231863502873
61.733298866745464,36.09240129357814
62.16164347738128,36.13276207092381
62.59296021341505,36.173402896829565
63.027269697329594,36.21432571444916
63.46459269469953,36.25553248041918
63.90495011518425,36.29702516495258
64.34836301352743,36.33880575193292
64.79485259056395,36.380876239009154
65.2444401942334,36.423238637691234
65.69714732060088,36.465894973446204
66.15299561488483,36.508847285795106
66.61200687249178,36.55209762841043
67.07420304005862,36.595648069214384
67.53960621650184,36.63950069047769
68.00823865407413,36.683657588919196
68.48012275942848,36.72812087580611
68.9552810946893,36.772892677054955
69.43373637853124,36.81797513333318
69.91551148726552,36.862063593638844
70.40062945593358,36.90435466108076
70.88911347940872,36.94693917065439
71.3809869135046,36.98981915844653
71.87627327609256,37.03299667467166
72.37499624822561,37.07647378376993
72.8771796752709,37.12025256450586
73.38284756804988,37.1643351100678
73.89202410398606,37.20872352816792
74.40473362826137,37.253419941143044
74.92100065497986,37.298426486056094
75.44084986833995,37.343745314798305
75.96430612381474,37.389378594192095
76.49139444933999,37.43532850609463
77.02214004651142,37.481597247502215
77.55656829178916,37.52818703065529
78.09470473771121,37.5751000831442
78.63657511411542,37.62233864801576
79.18220532936918,37.669904983880414
79.73162147160883,37.7178013650203
80.28484980998645,37.76134336588494
80.84191679592612,37.80516797160464
81.40284906438879,37.84929666011302
81.96767343514524,37.89373154132847
82.53641691405909,37.938474739809365
83.10910669437752,37.983528394855576
83.68577015803162,38.02889466061079
84.2664348769458,38.07457570616554
84.85112861435556,38.12057371566082
85.43987932613558,38.16689088839262
86.03271516213591,38.21352943891703
86.62966446752799,38.26049159715609
87.23075578416012,38.3077796085045
87.83601785192172,38.35539573393688
88.445479610118,38.40334225011596
89.05917019885312,38.45162144950137
89.67711896042374,38.500235640459266
90.29935544072205,38.5437339375238
90.925909390648,38.584569008431764
91.55681076753238,38.62568741884807
92.19208973656869,38.66709113476112
92.83177667225556,38.70878213580064
93.47590215984928,38.75076241533224
94.12449699682564,38.793033980552764
94.77759219435308,38.83559885258627
95.43521897877493,38.878459066580646
96.09740879310259,38.921616671804905
96.76419329851916,38.96507373174722
97.43560437589264,39.008832324213486
98.11167412730097,39.052894541426795
98.79243487756642,39.09726249012736
99.47791917580126,39.141938291673306
100.16815979696426,39.184409158152796
100.86318974342718,39.22232118045194
101.56304224655342,39.260496260302325
102.26775076828653,39.29893622296337
102.97734900274986,39.337642906359264
103.69187087785828,39.3766181611669
104.41135055693952,39.41586385090434
105.1358224403684,39.455381852019876
105.86532116721123,39.495174053981835
106.59988161688177,39.535242359368816
107.33953891080954,39.57558868396076
108.08432841411832,39.61621495683045
108.83428573731777,39.65712312043583
109.58944673800576,39.69831513071283
110.34984752258259,39.7397929571689
111.11552444797758,39.78155858297717
111.88651412338757,39.82361400507129
112.66285341202705,39.865961234240885
113.44457943289089,39.90860229522773
114.23172956252871,39.95153922682251
115.02434143683229,39.99477408196233
115.82245295283518,40.038308927828886
116.62610227052438,40.082145845947274
117.43532781466513,40.12628693228554
118.25016827663764,40.170734297354855
119.07066261628742,40.21549006631046
119.8968500637882,40.26055637905328
120.7287701215173,40.305935390332195
121.56646256594462,40.35162926984714
122.40996744953408,40.39764020235274
123.25932510265886,40.44397038776286
124.11457613553003,40.490622041255754
124.97576144013777,40.53759739337999
125.8429221922069,40.567358238499224
126.7160998531651,40.58935962606876
127.59533617212567,40.61151367315861
128.48067318788384,40.63382143901691
129.37215323092656,40.65628399024156
130.26981892545606,40.67890240083116
131.17371319142873,40.70167775223643
132.08387924660613,40.72461113341183
133.00036060862237,40.747703640867705
133.92320109706446,40.77095637872267
134.85244483556687,40.794370458756426
135.78813625392226,40.81794700046289
136.7303200902048,40.84168713110372
137.67904139290994,40.865591985762265
138.63434552310815,40.88966270739778
139.5962781566132,40.91390044690008
140.56488528616708,40.938306363144605
141.5402132236378,40.96288162304778
142.52230860223492,40.987627401622845
143.5112183787386,41.01254488203604
144.5069898357443,41.03763525566313
145.50967058392467,41.06289972214642
146.51930856430462,41.08833948945207
147.53595205055464,41.113955773927884
148.5596496512984,41.13974980036147
149.59045031243645,41.16572280203876
150.62840331948755,41.19187602080301
151.67355829994383,41.21821070711418
152.72596522564484,41.2447281201087
153.78567441516628,41.271429527659684
154.85273653622542,41.29831620643756
155.92720260810475,41.32538944197109
157.0091240040902,41.3517
158.09855245392842,41.3517
159.19554004629973,41.3517
160.30013923130812,41.3517
161.41240282299017,41.3517
162.53238400183892,41.3517
163.66013631734782,41.3517
164.7957136905704,41.3517
165.93917041669815,41.3517
167.09056116765746,41.3517
168.24994099472238,41.3517
169.41736533114806,41.3517
170.59288999482052,41.3517
171.776571190925,41.3517
172.96846551463454,41.3517
174.1686299538145,41.3517
175.37712189174854,41.3517
176.59399910988185,41.3517
177.8193197905832,41.3517
179.05314251992803,41.3517
180.29552629049837,41.3517
181.5465305042045,41.3517
182.80621497512467,41.3517
184.07463993236445,41.3517
185.35186602293768,41.3517
186.6379543146648,41.3517
187.93296629909383,41.3517
189.23696389444007,41.3517
190.55000944854584,41.3517
191.87216574186297,41.3517
193.20349599045295,41.3517
194.54406384901077,41.3517
195.89393341390794,41.3517
197.25316922625643,41.3517
198.62183627499604,41.3517
200.00000000000003,41.343759512320794
201.38772629520545,41.32030437492364
202.78508151176308,41.29668649097186
204.19213246120933,41.2729047312271
205.608946418662,41.24895795861561
207.03559112603529,41.22484502817394
208.47213479528025,41.20056478699413
209.91864611164556,41.17611607416861
211.37519423696082,41.15149772073474
212.84184881294496,41.12670854961884
214.31867996453425,41.10174737557998
215.80575830323676,41.07661300515325
217.3031549305077,41.05130423659275
218.81094144114851,41.02581985981409
220.3291899267314,41.00015865633657
221.85797297904458,40.97431939922489
223.39736369356456,40.948300853030496
224.9474356729504,40.922101773732514
226.50826303056232,40.89572090867828
228.07992039400665,40.86915699652341
229.66248290870226,40.842408767171534
231.2560262414751,40.81547494171356
232.86062658417538,40.78835423236648
234.47636065731973,40.76104534241188
236.10330571376113,40.73354696613386
237.74153954238068,40.70585778875667
239.3911404718086,40.67797648638177
241.05218737416854,40.64990172592462
242.72475966884815,40.62163216505089
244.40893732629777,40.593166452112264
246.10480087185235,40.564503226081854
247.81243138958317,40.53564111648911
249.531910526174,40.50657874335427
251.2633204948243,40.47731471712243
253.0067440791808,40.44784763859707
254.76226463729574,40.41817609887315
256.529966105612,40.38075236608505
258.30993300297683,40.33852791902265
260.102250434682,40.29601049208281
261.90700409653357,40.25319805238612
263.7242802789497,40.210088552947795
265.55416587108584,40.16667993257975
267.3967483649894,40.12297011579208
269.25211585978224,40.078957012693834
271.1203570658738,40.034638518893075
273.00156130920277,39.99001251539627
274.8958185355074,39.945076868506945
276.80321931462635,39.89982942972372
278.72385484482874,39.85426803563754
280.65781695717465,39.808390507828264
282.6051981199068,39.76219465276049
284.5660914428704,39.71567826167869
286.54059068196625,39.66883911050156
288.5287902436318,39.62167495971577
290.53078518935627,39.5741835542688
292.54667124022603,39.526362623461154
294.5765447815004,39.478209880837795
296.6205028672209,39.429723024078804
298.6786432248507,39.382391863351295
300.7510642599477,39.341759323832235
302.83786506087046,39.30084485009552
304.93914540351466,39.25964648590351
307.0550057560846,39.21816226144495
309.18554728389574,39.176390193240806
311.33087185421243,39.1343282840494
313.49108204111906,39.09197452277095
315.66628113042333,39.04932688435135
317.8565731245956,39.006383329685434
320.0620627477404,38.96314180551942
322.282855450604,38.919600244352765
324.51905741561745,38.875756564339284
326.77077556197213,38.83160866918763
329.0381175507325,38.787154448061074
331.32119178998306,38.74239177547657
333.62010744001185,38.69731851120312
335.93497441853066,38.65193250015946
338.26590340592946,38.606231572311
340.6130058505689,38.56021354256608
342.97639397410825,38.51387621067151
345.3561807768712,38.467217361107345
347.75248004325016,38.42023476298096
350.1654063471447,38.37292616992039
352.5950750574412,38.32528931996691
355.04160234352725,38.27732193546694
357.5051051808471,38.22902172296305
359.9857013564953,38.18038637308438
362.4835094748472,38.1314135604362
364.9986489632305,38.082100943488705
367.53124007763455,38.032446164465085
370.08140390846046,37.98244684922881
372.649262386312,37.93210060717005
375.234938287824,37.88140503109145
377.8385552415333,37.830357697092964
380.4602377337892,37.77895616445603
383.1001111147056,37.72719797552683
385.7583016041556,37.675080655598784
388.43493629780494,37.622601712794236
391.1301431731899,37.56975863794531
393.84405109583474,37.51654890447395
396.5767898254143,37.4629699682711
399.3284900219587,37.413200301604654
402.09928325209944,37.371300079658056
404.8893019953608,37.329109127512595
407.69867965049286,37.286625427898585
410.5275505418505,37.243846949549216
413.37604992581646,37.20077164710347
416.2443139972675,37.157397461008344
419.13247989608664,37.11372231742032
422.04068571371937,37.06974412810627
424.96907049977665,37.02546079034361
427.91777426868435,36.98087018681967
430.8869380063765,36.93597018553059
433.8767036770369,36.89075863967929
436.8872142298857,36.84523338757286
439.918613606015,36.79939225251922
442.9710467452719,36.753233042723
446.0446595931873,36.706753551180775
449.13959910795484,36.659951555575546
452.25601326745596,36.61282481817046
455.39405107633604,36.56537108570187
458.55386257312983,36.51758808927151
461.73559883743354,36.4694735442381
464.93941199712964,36.421025150108065
468.16545523565895,36.372240590425555
471.41388279934563,36.32311753266169
474.6848500047733,36.273653628103034
477.9785132462096,36.223846511739275
481.2950300030849,36.173693802150176
484.6345588475202,36.12319310139171
487.9972594519101,36.07234199488142
491.3832925965581,36.0211380512829
494.7928201773624,35.96957882238963
498.22600521355776,35.91766184300787
501.6830118555083,35.873808541259066
505.164005392557,35.83354971101138
508.6691522609297,35.793011539576945
512.1986200516914,35.75219208871022
515.7525775187603,35.71108940671686
519.3311945869746,35.66970152836048
522.9346423602185,35.62802647476861
526.5630931296041,35.58606225333813
530.2167203817073,35.54380685763996
533.8956988068643,35.50125826732316
537.6002043075216,35.45841444801833
541.3304140066483,35.41527335124032
545.0865062562057,35.3718329142903
548.8686606456725,35.32809106015713
552.677058010634,35.28404569741804
556.5118804414252,35.23969472013868
560.3733112918392,35.19503600777237
564.2615351878942,35.15006742505877
568.1767380366604,35.10478682192172
572.1191070351484,35.05919203336648
576.0888306792597,35.013280879376225
580.0860987727984,34.967051164807806
584.1111024365491,34.920500679286754
588.1640341174123,34.873627197101634
592.2450875976069,34.826428477097636
596.3544580039347,34.77890226256938
600.49234181711,34.733354037145965
604.6589368811553,34.70028844857468
608.8544424128606,34.66699343006976
613.0790590113054,34.63346738970145
617.332988667455,34.59970872449417
621.6164347738129,34.565715820349894
625.9296021341502,34.53148705197097
630.272696973296,34.49702078278237
634.6459269469954,34.46231536485353
639.0495011518428,34.42736913881945
643.4836301352744,34.39218043380146
647.9485259056391,34.35674756732722
652.444401942334,34.321068845250366
656.9714732060088,34.285142561669495
661.5299561488486,34.248966998846555
666.1200687249178,34.21254042712474
670.7420304005858,34.17586110484583
675.3960621650184,34.13892727826681
680.0823865407413,34.10173718147618
684.8012275942853,34.064289036309354
689.5528109468929,34.02658105226376
694.3373637853119,33.988611426413165
699.1551148726552,33.95037834332151
704.0062945593359,33.919232025398564
708.8911347940872,33.89097558733851
713.809869135046,33.86252308826794
718.7627327609252,33.833873167791744
723.7499624822561,33.80502445607554
728.771796752709,33.775975573780194
733.8284756804989,33.746725131995795
738.9202410398606,33.717271732175355
744.0473362826133,33.687613966067836
749.2100065497987,33.657750415650895
754.4084986833996,33.627679653063055
759.6430612381473,33.5974002405354
764.9139444934,33.56691073032292
770.2214004651139,33.53620966463518
775.5656829178915,33.50529557556671
780.9470473771121,33.474166985026784
786.3657511411542,33.44282240466873
791.8220532936919,33.4112603358188
797.3162147160879,33.379479269404506
802.8484980998645,33.350125135818935
808.4191679592622,33.32632946417396
814.0284906438878,33.30236868313272
819.6767343514524,33.278241647061954
825.3641691405904,33.25394720237929
831.0910669437752,33.22948418749805
836.857701580317,33.204851432771754
842.6643487694579,33.180047760438185
848.5112861435555,33.15507198456304
854.3987932613554,33.12992291098326
860.3271516213591,33.10459933724995
866.2966446752807,33.079100052570844
872.3075578416012,33.053423837752455
878.3601785192174,33.027569465141745
884.4547961011796,33.00153569856744
890.5917019885312,32.97532129328094
896.7711896042383,32.948924995896796
902.9935544072205,32.92234554433277
909.2590939064801,32.895264332158554
915.5681076753234,32.867984789031965
921.9208973656869,32.84051596320878
