frequency,spl_le,spl_te
20.0,49.7736,34.249032079980886
20.13877262952056,49.752771720687534,34.268112901979805
20.27850815117631,49.73179892162064,34.287326118770835
20.419213246120933,49.71068060003,34.30667264899265
20.560894641866188,49.689415746188445,34.32615341765801
20.70355911260353,49.6680033433627,34.34576935619802
20.84721347952804,49.64644236776473,34.3655214025066
20.991864611164555,49.624731788502814,34.38541050098542
21.137519423696084,49.60287056753227,34.40543760258898
21.28418488129449,49.580857659605805,34.425603664870096
21.431867996453427,49.55869201222352,34.445909652025705
21.580575830323685,49.53637256558261,34.46635653494294
21.73031549305077,49.51389825252672,34.48694529124557
21.88109414411485,49.491267998494855,34.50767690534074
22.03291899267313,49.46848072147006,34.52855236846601
22.185797297904458,49.44553533192764,34.5495726787368
22.339736369356466,49.42243073278311,34.57073884119408
22.494743567295043,49.39916581933972,34.592051867852405
22.650826303056235,49.37573947923563,34.613512777748355
22.80799203940065,49.35215059239072,34.635122596989206
22.966248290870222,49.32839803095306,34.656882358802044
23.12560262414752,49.30448065924497,34.6787931035831
23.28606265841754,49.280397333708734,34.70085587894756
23.44763606573197,49.256146902851874,34.723071739779606
23.610330571376103,49.23172820719217,34.74544174828289
23.77415395423807,49.20714007920216,34.7679669740313
23.939114047180876,49.18238134325333,34.79064849402009
24.105218737416852,49.15745081555995,34.8134873927174
24.27247596688481,49.1323473041224,34.836484762116086
24.440893732629764,49.10706960867023,34.85964170178595
24.610480087185238,49.0832512116106,34.88295931892629
24.781243138958327,49.05979418389916,34.90643872841887
24.9531910526174,49.0361743965169,34.93008105288119
25.12633204948242,49.012390720134455,34.9538874227202
25.300674407918063,48.98844201758645,34.9778589761863
25.47622646372957,48.96432714381714,35.001996859427805
25.65299661056121,48.94004494582565,35.02630222654574
25.830993300297685,48.91559426261087,35.050776239649
26.01022504346819,48.89097392511592,35.075420068909914
26.190700409653346,48.86618275617228,35.10023489262023
26.372428027894973,48.84121957044348,35.12522189724741
26.5554165871086,48.81608317436845,35.1503822774914
26.73967483649893,48.790772366104406,35.17571723634168
26.92521158597821,48.76528593546946,35.2012279851349
27.112035706587367,48.7396226638847,35.226915743612665
27.30015613092028,48.713781324315946,35.25278173997996
27.48958185355075,48.687760681215074,35.278827210963804
27.68032193146264,48.66155949046096,35.30505340187242
27.87238548448286,48.63517649929997,35.33146156665478
28.06578169571745,48.60861044628608,35.35805296796052
28.26051981199068,48.58186006122055,35.38482887720034
28.456609144287057,48.55492406509121,35.411790574606826
28.654059068196624,48.52780117001129,35.43893934929558
28.852879024363165,48.50049007915784,35.46627649932692
29.053078518935628,48.47298948670976,35.493803331767936
29.254667124022603,48.44529807778531,35.521521162754965
29.45765447815005,48.41741452837928,35.54943131755652
29.66205028672209,48.38933750529967,35.57753513063669
29.86786432248505,48.36106566610397,35.60583394571889
30.07510642599477,48.33259765903495,35.6243104745943
30.283786506087043,48.30557374880888,35.64093981149228
30.49391454035148,48.27899094277908,35.65768453323069
30.705500575608458,48.25222368845462,35.674545440422406
30.91855472838956,48.22527070601679,35.69152333923548
31.13308718542125,48.19813070676664,35.70861904143165
31.349108204111904,48.17080239306343,35.72583336440519
31.566628113042352,48.14328445826257,35.743167131221945
31.785657312459563,48.11557558665315,35.76062117065874
32.00620627477402,48.08767445339502,35.77819631724295
32.2282855450604,48.05957972445544,35.79589341129245
32.451905741561745,48.03129005654534,35.81371329895575
32.677077556197226,48.00280409705503,35.83165683225249
32.90381175507326,47.974120483989566,35.849724869114155
33.132119178998295,47.94523784590365,35.867918273425104
33.36201074400119,47.916154801836,35.88623791506385
33.59349744185307,47.88686996124336,35.90468466994471
33.826590340592965,47.85738192393401,35.923259420059615
34.06130058505689,47.82768928000082,35.941963053520325
34.297639397410805,47.79779060975383,35.96079646460088
34.535618077687126,47.76768448365237,35.979760553780366
34.775248004325015,47.73736946223673,35.998856227785936
35.01654063471449,47.70684409605929,36.01808439963623
35.25950750574412,47.67610692561528,36.037445988684944
35.50416023435271,47.64515648127294,36.056941920664855
35.75051051808472,47.61399128320329,36.07657312773206
35.99857013564954,47.58260984130936,36.09634054851053
36.24835094748474,47.55101065515494,36.11624512813702
36.499864896323054,47.51919221389285,36.136287818306215
36.75312400776343,47.48715299619271,36.15646957731629
37.008140390846044,47.45489147016816,36.17679137011467
37.264926238631205,47.422406093303664,36.19725416834421
37.523493828782414,47.389823605732815,36.21785895038963
37.78385552415333,47.35805813426548,36.23860670142432
38.0460237733789,47.32607225389796,36.259498413457386
38.310011111470565,47.29386443529415,36.28053508538115
38.57583016041556,47.26143313850639,36.30171772301888
38.84349362978051,47.228776812901934,36.32304733917287
39.113014317318985,47.19589389708875,36.34452495367288
39.384405109583454,47.16278281884088,36.36615159342488
39.65767898254144,47.12944199502327,36.38792829246019
39.93284900219587,47.09586983151608,36.409856091984864
40.209928325209965,47.06206472313847,36.4257936265053
40.488930199536085,47.02802505357182,36.441829421686336
40.76986796504927,46.99374919528248,36.45797648334055
41.05275505418505,46.959235509443936,36.474235583505
41.337604992581646,46.924482345858486,36.49060749957363
41.62443139972677,46.88948804287829,36.50709301433441
41.91324798960866,46.85425092732596,36.52369291600681
42.20406857137191,46.81876931441453,36.540407998279456
42.49690704997767,46.78304150766692,36.55723906034808
42.79177742686844,46.74706579883486,36.57418690695375
43.08869380063767,46.71084046781712,36.59125234842133
43.38767036770369,46.67436378257735,36.60843620069822
43.68872142298855,46.63763399906123,36.62573928539341
43.991861360601504,46.6006493611131,36.64316242981669
44.29710467452719,46.563408100391975,36.66070646701828
44.60446595931875,46.52590843628701,36.67837223582862
44.91395991079549,46.488148575832334,36.696160580898464
45.225601326745576,46.45012671362138,36.71407235273932
45.539405107633605,46.41184103172051,36.73210840776407
45.85538625731298,46.37328969958213,36.75026960832791
46.17355988374338,46.33447087395712,36.768556822769625
46.49394119971296,46.29666487332476,36.78697092545308
46.81654552356587,46.26180438821618,36.80551279680901
47.14138827993456,46.226702019048346,36.82418332337716
47.46848500047733,46.191356087476926,36.84298339784863
47.79785132462101,46.15576490351215,36.861913919108574
48.12950300030849,46.11992676543805,36.88097579227919
48.463455884752,46.08383995973107,36.900169928762985
48.79972594519101,46.04750276097814,36.91949724628634
49.13832925965581,46.0109134317942,36.93895866894341
49.47928201773629,45.97407022273909,36.958555127240295
49.822600521355774,45.93697137223395,36.978287558139534
50.1683011855508,45.89961510647697,36.996461324968514
50.5164005392557,45.86199963935859,37.01152114082453
50.866915226093,45.82412317237607,37.02668545119286
51.2198620051692,45.78598389454754,37.04195498112244
51.57525775187602,45.747579982325405,37.057330460693
51.93311945869743,45.70890959950912,37.07281262505007
52.29346423602185,45.66997089715744,37.08840221444007
52.65630931296043,45.63076201349998,37.104099974245706
53.021672038170784,45.59128107384824,37.11990665502163
53.38956988068642,45.551526190505925,37.13582301253032
53.76002043075213,45.51149546267873,37.151849807778206
54.13304140066484,45.47118697638342,37.16798780705206
54.50865062562059,45.43059880435635,37.18423778195562
54.88686606456732,45.3897290059613,37.20060050944655
55.26770580106341,45.34857562709669,37.21707677187347
55.65118804414249,45.30713670010214,37.23366735701348
56.03733112918391,45.26541024366442,37.250373058109744
56.42615351878945,45.22339426272267,37.267194673909465
56.81767380366609,45.18108674837307,37.28413300870206
57.211910703514846,45.13848567777273,37.30118887235759
57.60888306792594,45.095589014043,37.31836308036553
58.00860987727984,45.05239470617211,37.335656453873725
58.41111024365494,45.00924232048732,37.35306981972768
58.81640341174128,44.969187666122906,37.37060401051005
59.224508759760695,44.92885508727296,37.38825986458048
59.63544580039345,44.8882426555219,37.40603822611572
60.04923418171099,44.84734842907358,37.42393994514988
60.46589368811557,44.80617045265843,37.43705987571905
60.88544424128607,44.76470675744,37.449139042383074
61.30790590113055,44.72295536092083,37.46130202193312
61.73329886674546,44.6809142668476,37.47354939591591
62.16164347738128,44.638581465115735,37.48588174991332
62.59296021341505,44.59595493167331,37.49829967357034
63.0272696973296,44.55303262842423,37.510803760623325
63.46459269469953,44.50981250313081,37.52339460892832
63.90495011518425,44.46629248931562,37.53607282048966
64.34836301352743,44.422470506162746,37.5488390014888
64.79485259056395,44.37834445841821,37.56169376231326
65.2444401942334,44.33391223628989,37.57463771758579
65.69714732060088,44.28917171534657,37.58767148619379
66.15299561488483,44.244120756416365,37.60079569131892
66.61200687249178,44.198757205484505,37.614010960466814
67.07420304005862,44.15307889359028,37.62731792549719
67.53960621650184,44.10708363672338,37.64071722265397
68.00823865407413,44.06076923571944,37.65420949259576
68.48012275942848,44.014133476154896,37.667795380426455
68.9552810946893,43.967174128241126,37.68147553572608
69.43373637853124,43.91988894671783,37.695250612581866
69.91551148726552,43.87227567074567,37.7091212696195
70.40062945593358,43.82433202379817,37.722051211503
70.88911347940872,43.77605571355288,37.73324884737236
71.3809869135046,43.72744443178178,37.744524179510414
71.87627327609256,43.67849585424089,37.75587774702294
72.37499624822561,43.62920764055917,37.76731009275638
72.8771796752709,43.57957743412661,37.77882176332377
73.38284756804988,43.53327921540773,37.790413309130905
73.89202410398606,43.48833621302565,37.80208528440263
74.40473362826137,43.44308136771263,37.81383824720936
74.92100065497986,43.39751251570547,37.82567275949376
75.44084986833995,43.351627478227456,37.8375893870976
75.96430612381474,43.30542406138411,37.84958869978882
76.49139444933999,43.25890005605836,37.86167127128876
77.02214004651142,43.21205323780487,37.87383767929963
77.55656829178916,43.16488136674368,37.88608850553208
78.09470473771121,43.11738218745317,37.89842433573303
78.63657511411542,43.06955342886215,37.91084575971369
79.18220532936918,43.021392804141314,37.92335337137776
79.73162147160883,42.97289801059388,37.93594776874981
80.28484980998645,42.92406672954552,37.95176171686609
80.84191679592612,42.87489662623346,37.96769843550847
81.40284906438879,42.82538534969487,37.98374573316844
81.96767343514524,42.77553053265448,37.99990437711307
82.53641691405909,42.72532979141134,38.016175139933175
83.10910669437752,42.674780725724894,38.03255879958033
83.68577015803162,42.6238809187002,38.049056139404
84.2664348769458,42.57262793667234,38.065667948189045
84.85112861435556,42.52101932909015,38.0823950201934
85.43987932613558,42.46905262839896,38.09923815518606
86.03271516213591,42.41672534992264,38.11619815848534
86.62966446752799,42.36529162757682,38.13327584099734
87.23075578416012,42.31899410540047,38.15047201925477
87.83601785192172,42.27237534177949,38.16778751545591
88.445479610118,42.22543310773786,38.18522315750402
89.05917019885312,42.178165158833565,38.20277977904684
89.67711896042374,42.13056923505119,38.22045821951652
90.29935544072204,42.08264306069393,38.23840352490165
90.925909390648,42.03438434427476,38.25655175164518
91.55681076753238,41.98579077840683,38.27482590224604
92.19208973656868,41.93686003969325,38.293226850443446
92.83177667225556,41.88758978861589,38.31175547603921
93.47590215984928,41.83797766942356,38.330412664939736
94.12449699682564,41.78802131001942,38.349199309198426
94.77759219435308,41.73771832184749,38.36811630705829
95.43521897877493,41.687066299778486,38.38716456299495
96.0974087931026,41.636062821994834,38.4063449877598
96.76419329851916,41.58470544987484,38.42565849842366
97.43560437589264,41.53299172787614,38.44510601842052
98.11167412730096,41.48091918341822,38.46468847759176
98.79243487756642,41.4284853267643,38.48440681223058
99.47791917580126,41.375687650902194,38.50426196512679
100.16815979696426,41.32252363142448,38.52147711751915
100.86318974342718,41.26899072640784,38.53345092467779
101.56304224655342,41.21508637629144,38.54550781367168
102.26775076828652,41.16080800375462,38.55764836097504
102.97734900274986,41.106153013593655,38.56987314706205
103.69187087785828,41.051118792597634,38.58218275643459
104.41135055693952,40.995702709423554,38.59457777765019
105.1358224403684,40.93990211447049,38.607058803350135
105.86532116721123,40.887447168633095,38.61962643028786
106.59988161688176,40.83598497575219,38.63228125935744
107.33953891080954,40.78416570567993,38.64502389562231
108.08432841411832,40.73198688078929,38.657854948344266
108.83428573731776,40.67944600626189,38.6707750310125
109.58944673800576,40.6265405699687,38.68378476137302
110.3498475225826,40.57326804234999,38.69688476145811
111.11552444797758,40.51962587629434,38.71007565761612
111.88651412338756,40.46561150701687,38.723358080541416
112.66285341202703,40.411222351936566,38.7367326653045
113.44457943289088,40.35645581055285,38.7502000513824
114.23172956252871,40.30130926432127,38.76376088268923
115.02434143683227,40.24578007652821,38.77741580760702
115.82245295283518,40.18986559216491,38.79116547901664
116.62610227052438,40.13356313780042,38.80501055432909
117.43532781466511,40.0768700214539,38.81895169551689
118.25016827663764,40.01978353246582,38.83298956914575
119.07066261628742,39.9623009413684,38.84712484640642
119.8968500637882,39.90441949975507,38.86135820314682
120.7287701215173,39.84613644014909,38.87569031990431
121.56646256594462,39.78744897587119,38.89012188193825
122.40996744953408,39.72835430090641,38.90465357926277
123.25932510265886,39.66884958976986,38.919286106679735
124.11457613553004,39.60893199737165,38.934020163812015
124.97576144013776,39.54859865888085,38.94885645513688
125.8429221922069,39.48784668958854,38.9573366651324
126.7160998531651,39.42667318476986,38.96294236440174
127.59533617212568,39.36507521954517,38.96858695955248
128.48067318788384,39.3030498487401,38.97427072046879
129.37215323092656,39.24059410674485,38.979993918907496
130.26981892545606,39.17770500737233,38.98575682851104
131.17371319142873,39.1143795437154,38.99155972482055
132.08387924660613,39.05061468800312,38.99740288528905
133.00036060862237,38.986407391455934,39.00328658929469
133.92320109706446,38.92175458413992,39.00921111815413
134.85244483556687,38.85665317482005,39.01517675513601
135.78813625392226,38.79110005081235,39.02118378547443
136.7303200902048,38.72509207783505,39.02723249638262
137.67904139290994,38.65862609985879,39.03332317706671
138.63434552310815,38.59169893895565,39.03945611873951
139.5962781566132,38.52430739514728,39.04563161463444
140.56488528616708,38.4564482462518,39.05184996001957
141.5402132236378,38.38811824772987,39.05811145221171
142.52230860223492,38.32361515352789,39.064416390590665
143.5112183787386,38.27062934662054,39.07076507661351
144.5069898357443,38.2172758907256,39.07715781382903
145.50967058392467,38.16355223486223,39.083594907892206
146.51930856430462,38.10945581034929,39.09007666657886
147.53595205055464,38.05498403068248,39.096603399800365
148.5596496512984,38.00013429141072,39.10317541961843
149.59045031243645,37.9449039700116,39.10979304026007
150.62840331948755,37.88929042576597,39.11645657813259
151.67355829994383,37.83329099963176,39.123166351838734
152.72596522564484,37.77690301411674,39.12992268219191
153.78567441516628,37.72012377315054,39.13672589223154
154.85273653622542,37.6629505619558,39.14357630723848
155.92720260810475,37.60538064691827,39.15047425475062
157.0091240040902,37.54741127545619,39.15742006457849
158.09855245392842,37.48903967588865,39.16441406882105
159.19554004629973,37.43026305730303,39.1714566018816
160.30013923130812,37.371078609421645,39.16754452400673
161.41240282299017,37.31148350246729,39.163537077552256
162.53238400183892,37.25147488702801,39.15950182490367
163.66013631734782,37.19104989392081,39.15543857312405
164.7957136905704,37.1302056340545,39.15134712793773
165.93917041669815,37.068939198291545,39.147227293721066
167.09056116765746,37.00724765730897,39.14307887349303
168.24994099472238,36.94512806145835,39.13890166890582
169.41736533114806,36.88257744062467,39.13469548023538
170.59288999482052,36.81959280408443,39.13046010637184
171.776571190925,36.75617114036259,39.12619534480989
172.96846551463454,36.69230941708858,39.12190099163913
174.1686299538145,36.62800458085135,39.11757684153429
175.37712189174854,36.56526388658108,39.11322268774544
176.59399910988185,36.50877488092088,39.10883832208804
177.8193197905832,36.45189391886797,39.1044235349331
179.05314251992803,36.39461828078137,39.09997811519704
180.2955262904984,36.33694522814954,39.09550185033167
181.5465305042045,36.2788720034594,39.09099452631402
182.80621497512467,36.2203958300645,39.08645592763607
184.07463993236445,36.161513912052285,39.08188583729447
185.35186602293768,36.10222343411039,39.07728403678018
186.6379543146648,36.042521561392014,39.07265030606799
187.93296629909383,35.98240543938042,39.06798442360604
189.23696389444007,35.92187219375241,39.06328616630516
190.55000944854584,35.86091893024095,39.0585553095283
191.87216574186297,35.79954273449671,39.0537916270797
193.20349599045292,35.73774067194881,39.04899489119412
194.5440638490108,35.67550978766444,39.04416487252594
195.89393341390797,35.61284710620758,39.0393013401382
197.25316922625643,35.549749631496795,39.03440406149155
198.62183627499604,35.486214346661924,39.02947280243313
200.00000000000003,35.42223821389986,39.02012016421499
201.38772629520545,35.3578181743293,39.00216114337761
202.78508151176308,35.292951147844484,38.98407751151297
204.19213246120933,35.22763403296796,38.96586840399108
205.608946418662,35.161863706702206,38.94753295018258
207.03559112603529,35.09563702438045,38.92907027341717
208.47213479528023,35.02895081951618,38.91047949094161
209.9186461116456,34.96180190365182,38.891759713877605
211.3751942369608,34.89418706620627,38.872910047179246
212.84184881294496,34.82610307432137,38.85392958959021
214.31867996453423,34.75754667270736,38.834817433600726
215.8057583032368,34.68851458348723,38.81557266540412
217.3031549305077,34.61900350603998,38.79619436485315
218.8109414411485,34.54901011684283,38.77668160541602
220.3291899267314,34.47853106931227,38.757033454132085
221.85797297904455,34.40756299364413,38.737248971567205
223.39736369356456,34.33610249665236,38.71732721176886
224.9474356729504,34.26414616160686,38.69726722222092
226.50826303056232,34.19206003400871,38.6770680437981
228.07992039400665,34.12344297656104,38.65672871072008
229.66248290870223,34.054349810638776,38.63624825050537
231.2560262414751,33.98477723270067,38.61562568392476
232.86062658417535,33.9147219162834,38.59486002495456
234.47636065731973,33.84418051184259,38.57395028072942
236.10330571376116,33.77314964659255,38.552895451494834
237.74153954238068,33.70162592434512,38.5316945305594
239.3911404718086,33.629605925347235,38.51034650424664
241.0521873741685,33.55708620611738,38.48885035184656
242.72475966884812,33.484063299281054,38.46720504556682
244.40893732629775,33.410533713404874,38.44540955048362
246.10480087185235,33.33649393282973,38.4234628244922
247.8124313895832,33.26194041750261,38.40136381825703
249.531910526174,33.18686960280737,38.37911147516159
